x-axis,1
second,Volt
-2.5000000E+00,+1.5176272E+00
-2.4996875E+00,+1.5176272E+00
-2.4993750E+00,+1.5176272E+00
-2.4990625E+00,+1.5188835E+00
-2.4987500E+00,+1.5176272E+00
-2.4984375E+00,+1.5176272E+00
-2.4981250E+00,+1.5188835E+00
-2.4978125E+00,+1.5176272E+00
-2.4975000E+00,+1.5176272E+00
-2.4971875E+00,+1.5176272E+00
-2.4968750E+00,+1.5176272E+00
-2.4965625E+00,+1.5176272E+00
-2.4962500E+00,+1.5176272E+00
-2.4959375E+00,+1.5176272E+00
-2.4956250E+00,+1.5176272E+00
-2.4953125E+00,+1.5176272E+00
-2.4950000E+00,+1.5176272E+00
-2.4946875E+00,+1.5176272E+00
-2.4943750E+00,+1.5176272E+00
-2.4940625E+00,+1.5176272E+00
-2.4937500E+00,+1.5163709E+00
-2.4934375E+00,+1.5163709E+00
-2.4931250E+00,+1.5163709E+00
-2.4928125E+00,+1.5176272E+00
-2.4925000E+00,+1.5163709E+00
-2.4921875E+00,+1.5163709E+00
-2.4918750E+00,+1.5163709E+00
-2.4915625E+00,+1.5163709E+00
-2.4912500E+00,+1.5163709E+00
-2.4909375E+00,+1.5163709E+00
-2.4906250E+00,+1.5163709E+00
-2.4903125E+00,+1.5163709E+00
-2.4900000E+00,+1.5176272E+00
-2.4896875E+00,+1.5163709E+00
-2.4893750E+00,+1.5163709E+00
-2.4890625E+00,+1.5163709E+00
-2.4887500E+00,+1.5163709E+00
-2.4884375E+00,+1.5176272E+00
-2.4881250E+00,+1.5163709E+00
-2.4878125E+00,+1.5163709E+00
-2.4875000E+00,+1.5163709E+00
-2.4871875E+00,+1.5151146E+00
-2.4868750E+00,+1.5163709E+00
-2.4865625E+00,+1.5163709E+00
-2.4862500E+00,+1.5163709E+00
-2.4859375E+00,+1.5163709E+00
-2.4856250E+00,+1.5151146E+00
-2.4853125E+00,+1.5151146E+00
-2.4850000E+00,+1.5151146E+00
-2.4846875E+00,+1.5151146E+00
-2.4843750E+00,+1.5151146E+00
-2.4840625E+00,+1.5163709E+00
-2.4837500E+00,+1.5151146E+00
-2.4834375E+00,+1.5151146E+00
-2.4831250E+00,+1.5151146E+00
-2.4828125E+00,+1.5151146E+00
-2.4825000E+00,+1.5151146E+00
-2.4821875E+00,+1.5151146E+00
-2.4818750E+00,+1.5151146E+00
-2.4815625E+00,+1.5138584E+00
-2.4812500E+00,+1.5138584E+00
-2.4809375E+00,+1.5138584E+00
-2.4806250E+00,+1.5151146E+00
-2.4803125E+00,+1.5138584E+00
-2.4800000E+00,+1.5138584E+00
-2.4796875E+00,+1.5151146E+00
-2.4793750E+00,+1.5151146E+00
-2.4790625E+00,+1.5138584E+00
-2.4787500E+00,+1.5138584E+00
-2.4784375E+00,+1.5138584E+00
-2.4781250E+00,+1.5151146E+00
-2.4778125E+00,+1.5138584E+00
-2.4775000E+00,+1.5138584E+00
-2.4771875E+00,+1.5138584E+00
-2.4768750E+00,+1.5138584E+00
-2.4765625E+00,+1.5138584E+00
-2.4762500E+00,+1.5138584E+00
-2.4759375E+00,+1.5138584E+00
-2.4756250E+00,+1.5138584E+00
-2.4753125E+00,+1.5126021E+00
-2.4750000E+00,+1.5126021E+00
-2.4746875E+00,+1.5138584E+00
-2.4743750E+00,+1.5126021E+00
-2.4740625E+00,+1.5126021E+00
-2.4737500E+00,+1.5126021E+00
-2.4734375E+00,+1.5126021E+00
-2.4731250E+00,+1.5113458E+00
-2.4728125E+00,+1.5113458E+00
-2.4725000E+00,+1.5113458E+00
-2.4721875E+00,+1.5113458E+00
-2.4718750E+00,+1.5113458E+00
-2.4715625E+00,+1.5126021E+00
-2.4712500E+00,+1.5113458E+00
-2.4709375E+00,+1.5113458E+00
-2.4706250E+00,+1.5113458E+00
-2.4703125E+00,+1.5113458E+00
-2.4700000E+00,+1.5113458E+00
-2.4696875E+00,+1.5100895E+00
-2.4693750E+00,+1.5113458E+00
-2.4690625E+00,+1.5113458E+00
-2.4687500E+00,+1.5113458E+00
-2.4684375E+00,+1.5113458E+00
-2.4681250E+00,+1.5100895E+00
-2.4678125E+00,+1.5113458E+00
-2.4675000E+00,+1.5100895E+00
-2.4671875E+00,+1.5100895E+00
-2.4668750E+00,+1.5100895E+00
-2.4665625E+00,+1.5100895E+00
-2.4662500E+00,+1.5100895E+00
-2.4659375E+00,+1.5088332E+00
-2.4656250E+00,+1.5100895E+00
-2.4653125E+00,+1.5100895E+00
-2.4650000E+00,+1.5100895E+00
-2.4646875E+00,+1.5100895E+00
-2.4643750E+00,+1.5100895E+00
-2.4640625E+00,+1.5100895E+00
-2.4637500E+00,+1.5088332E+00
-2.4634375E+00,+1.5088332E+00
-2.4631250E+00,+1.5088332E+00
-2.4628125E+00,+1.5088332E+00
-2.4625000E+00,+1.5100895E+00
-2.4621875E+00,+1.5100895E+00
-2.4618750E+00,+1.5088332E+00
-2.4615625E+00,+1.5088332E+00
-2.4612500E+00,+1.5088332E+00
-2.4609375E+00,+1.5088332E+00
-2.4606250E+00,+1.5075769E+00
-2.4603125E+00,+1.5088332E+00
-2.4600000E+00,+1.5075769E+00
-2.4596875E+00,+1.5075769E+00
-2.4593750E+00,+1.5075769E+00
-2.4590625E+00,+1.5075769E+00
-2.4587500E+00,+1.5075769E+00
-2.4584375E+00,+1.5075769E+00
-2.4581250E+00,+1.5075769E+00
-2.4578125E+00,+1.5088332E+00
-2.4575000E+00,+1.5088332E+00
-2.4571875E+00,+1.5075769E+00
-2.4568750E+00,+1.5075769E+00
-2.4565625E+00,+1.5088332E+00
-2.4562500E+00,+1.5075769E+00
-2.4559375E+00,+1.5075769E+00
-2.4556250E+00,+1.5063207E+00
-2.4553125E+00,+1.5075769E+00
-2.4550000E+00,+1.5075769E+00
-2.4546875E+00,+1.5075769E+00
-2.4543750E+00,+1.5063207E+00
-2.4540625E+00,+1.5063207E+00
-2.4537500E+00,+1.5063207E+00
-2.4534375E+00,+1.5050644E+00
-2.4531250E+00,+1.5050644E+00
-2.4528125E+00,+1.5050644E+00
-2.4525000E+00,+1.5038081E+00
-2.4521875E+00,+1.5025518E+00
-2.4518750E+00,+1.5025518E+00
-2.4515625E+00,+1.5012955E+00
-2.4512500E+00,+1.5000393E+00
-2.4509375E+00,+1.4987830E+00
-2.4506250E+00,+1.4987830E+00
-2.4503125E+00,+1.4962704E+00
-2.4500000E+00,+1.4937579E+00
-2.4496875E+00,+1.4912453E+00
-2.4493750E+00,+1.4899890E+00
-2.4490625E+00,+1.4874764E+00
-2.4487500E+00,+1.4849639E+00
-2.4484375E+00,+1.4824513E+00
-2.4481250E+00,+1.4786825E+00
-2.4478125E+00,+1.4774262E+00
-2.4475000E+00,+1.4749136E+00
-2.4471875E+00,+1.4711448E+00
-2.4468750E+00,+1.4673759E+00
-2.4465625E+00,+1.4648634E+00
-2.4462500E+00,+1.4610945E+00
-2.4459375E+00,+1.4573257E+00
-2.4456250E+00,+1.4548131E+00
-2.4453125E+00,+1.4510443E+00
-2.4450000E+00,+1.4460192E+00
-2.4446875E+00,+1.4422503E+00
-2.4443750E+00,+1.4384815E+00
-2.4440625E+00,+1.4359689E+00
-2.4437500E+00,+1.4309438E+00
-2.4434375E+00,+1.4259187E+00
-2.4431250E+00,+1.4208935E+00
-2.4428125E+00,+1.4171247E+00
-2.4425000E+00,+1.4120996E+00
-2.4421875E+00,+1.4058182E+00
-2.4418750E+00,+1.4007930E+00
-2.4415625E+00,+1.3957679E+00
-2.4412500E+00,+1.3894865E+00
-2.4409375E+00,+1.3832051E+00
-2.4406250E+00,+1.3769237E+00
-2.4403125E+00,+1.3718986E+00
-2.4400000E+00,+1.3643609E+00
-2.4396875E+00,+1.3580795E+00
-2.4393750E+00,+1.3517981E+00
-2.4390625E+00,+1.3455166E+00
-2.4387500E+00,+1.3379790E+00
-2.4384375E+00,+1.3316976E+00
-2.4381250E+00,+1.3241599E+00
-2.4378125E+00,+1.3178785E+00
-2.4375000E+00,+1.3103408E+00
-2.4371875E+00,+1.3028031E+00
-2.4368750E+00,+1.2965217E+00
-2.4365625E+00,+1.2877277E+00
-2.4362500E+00,+1.2801900E+00
-2.4359375E+00,+1.2739086E+00
-2.4356250E+00,+1.2651146E+00
-2.4353125E+00,+1.2575769E+00
-2.4350000E+00,+1.2512955E+00
-2.4346875E+00,+1.2437579E+00
-2.4343750E+00,+1.2374764E+00
-2.4340625E+00,+1.2324513E+00
-2.4337500E+00,+1.2261699E+00
-2.4334375E+00,+1.2198885E+00
-2.4331250E+00,+1.2161197E+00
-2.4328125E+00,+1.2110945E+00
-2.4325000E+00,+1.2060694E+00
-2.4321875E+00,+1.2010443E+00
-2.4318750E+00,+1.1972754E+00
-2.4315625E+00,+1.1947629E+00
-2.4312500E+00,+1.1909940E+00
-2.4309375E+00,+1.1884815E+00
-2.4306250E+00,+1.1847126E+00
-2.4303125E+00,+1.1834563E+00
-2.4300000E+00,+1.1822001E+00
-2.4296875E+00,+1.1809438E+00
-2.4293750E+00,+1.1796875E+00
-2.4290625E+00,+1.1796875E+00
-2.4287500E+00,+1.1796875E+00
-2.4284375E+00,+1.1796875E+00
-2.4281250E+00,+1.1809438E+00
-2.4278125E+00,+1.1822001E+00
-2.4275000E+00,+1.1847126E+00
-2.4271875E+00,+1.1859689E+00
-2.4268750E+00,+1.1884815E+00
-2.4265625E+00,+1.1935066E+00
-2.4262500E+00,+1.1960192E+00
-2.4259375E+00,+1.1997880E+00
-2.4256250E+00,+1.2035568E+00
-2.4253125E+00,+1.2085820E+00
-2.4250000E+00,+1.2136071E+00
-2.4246875E+00,+1.2186322E+00
-2.4243750E+00,+1.2236574E+00
-2.4240625E+00,+1.2311950E+00
-2.4237500E+00,+1.2374764E+00
-2.4234375E+00,+1.2450141E+00
-2.4231250E+00,+1.2538081E+00
-2.4228125E+00,+1.2600895E+00
-2.4225000E+00,+1.2688835E+00
-2.4221875E+00,+1.2776775E+00
-2.4218750E+00,+1.2864714E+00
-2.4215625E+00,+1.2965217E+00
-2.4212500E+00,+1.3053156E+00
-2.4209375E+00,+1.3166222E+00
-2.4206250E+00,+1.3266724E+00
-2.4203125E+00,+1.3379790E+00
-2.4200000E+00,+1.3492855E+00
-2.4196875E+00,+1.3605920E+00
-2.4193750E+00,+1.3744111E+00
-2.4190625E+00,+1.3869739E+00
-2.4187500E+00,+1.4007930E+00
-2.4184375E+00,+1.4133558E+00
-2.4181250E+00,+1.4259187E+00
-2.4178125E+00,+1.4397378E+00
-2.4175000E+00,+1.4548131E+00
-2.4171875E+00,+1.4698885E+00
-2.4168750E+00,+1.4849639E+00
-2.4165625E+00,+1.5012955E+00
-2.4162500E+00,+1.5163709E+00
-2.4159375E+00,+1.5339589E+00
-2.4156250E+00,+1.5502905E+00
-2.4153125E+00,+1.5678785E+00
-2.4150000E+00,+1.5854664E+00
-2.4146875E+00,+1.6043106E+00
-2.4143750E+00,+1.6218986E+00
-2.4140625E+00,+1.6407428E+00
-2.4137500E+00,+1.6595870E+00
-2.4134375E+00,+1.6796875E+00
-2.4131250E+00,+1.6997880E+00
-2.4128125E+00,+1.7186322E+00
-2.4125000E+00,+1.7374764E+00
-2.4121875E+00,+1.7563207E+00
-2.4118750E+00,+1.7751649E+00
-2.4115625E+00,+1.7940091E+00
-2.4112500E+00,+1.8141096E+00
-2.4109375E+00,+1.8329538E+00
-2.4106250E+00,+1.8530543E+00
-2.4103125E+00,+1.8718986E+00
-2.4100000E+00,+1.8907428E+00
-2.4096875E+00,+1.9095870E+00
-2.4093750E+00,+1.9296875E+00
-2.4090625E+00,+1.9485317E+00
-2.4087500E+00,+1.9673759E+00
-2.4084375E+00,+1.9862202E+00
-2.4081250E+00,+2.0063207E+00
-2.4078125E+00,+2.0251649E+00
-2.4075000E+00,+2.0440091E+00
-2.4071875E+00,+2.0641096E+00
-2.4068750E+00,+2.0842101E+00
-2.4065625E+00,+2.1030543E+00
-2.4062500E+00,+2.1218985E+00
-2.4059375E+00,+2.1407428E+00
-2.4056250E+00,+2.1595870E+00
-2.4053125E+00,+2.1784312E+00
-2.4050000E+00,+2.1985317E+00
-2.4046875E+00,+2.2186322E+00
-2.4043750E+00,+2.2374764E+00
-2.4040625E+00,+2.2563207E+00
-2.4037500E+00,+2.2751649E+00
-2.4034375E+00,+2.2940091E+00
-2.4031250E+00,+2.3141096E+00
-2.4028125E+00,+2.3342101E+00
-2.4025000E+00,+2.3530543E+00
-2.4021875E+00,+2.3718985E+00
-2.4018750E+00,+2.3907428E+00
-2.4015625E+00,+2.4095870E+00
-2.4012500E+00,+2.4284312E+00
-2.4009375E+00,+2.4472754E+00
-2.4006250E+00,+2.4648634E+00
-2.4003125E+00,+2.4849639E+00
-2.4000000E+00,+2.5038081E+00
-2.3996875E+00,+2.5226523E+00
-2.3993750E+00,+2.5414965E+00
-2.3990625E+00,+2.5603408E+00
-2.3987500E+00,+2.5804413E+00
-2.3984375E+00,+2.5992855E+00
-2.3981250E+00,+2.6181297E+00
-2.3978125E+00,+2.6382302E+00
-2.3975000E+00,+2.6570744E+00
-2.3971875E+00,+2.6771749E+00
-2.3968750E+00,+2.6947629E+00
-2.3965625E+00,+2.7136071E+00
-2.3962500E+00,+2.7337076E+00
-2.3959375E+00,+2.7525518E+00
-2.3956250E+00,+2.7713960E+00
-2.3953125E+00,+2.7877277E+00
-2.3950000E+00,+2.8053156E+00
-2.3946875E+00,+2.8216473E+00
-2.3943750E+00,+2.8379789E+00
-2.3940625E+00,+2.8530543E+00
-2.3937500E+00,+2.8668734E+00
-2.3934375E+00,+2.8794362E+00
-2.3931250E+00,+2.8919990E+00
-2.3928125E+00,+2.9045619E+00
-2.3925000E+00,+2.9171247E+00
-2.3921875E+00,+2.9271749E+00
-2.3918750E+00,+2.9372252E+00
-2.3915625E+00,+2.9472754E+00
-2.3912500E+00,+2.9560694E+00
-2.3909375E+00,+2.9648634E+00
-2.3906250E+00,+2.9736573E+00
-2.3903125E+00,+2.9811950E+00
-2.3900000E+00,+2.9862201E+00
-2.3896875E+00,+2.9899890E+00
-2.3893750E+00,+2.9950141E+00
-2.3890625E+00,+3.0000392E+00
-2.3887500E+00,+3.0038081E+00
-2.3884375E+00,+3.0063206E+00
-2.3881250E+00,+3.0088332E+00
-2.3878125E+00,+3.0113458E+00
-2.3875000E+00,+3.0126021E+00
-2.3871875E+00,+3.0113458E+00
-2.3868750E+00,+3.0126021E+00
-2.3865625E+00,+3.0113458E+00
-2.3862500E+00,+3.0088332E+00
-2.3859375E+00,+3.0075769E+00
-2.3856250E+00,+3.0050644E+00
-2.3853125E+00,+3.0012955E+00
-2.3850000E+00,+2.9962704E+00
-2.3846875E+00,+2.9912453E+00
-2.3843750E+00,+2.9862201E+00
-2.3840625E+00,+2.9811950E+00
-2.3837500E+00,+2.9749136E+00
-2.3834375E+00,+2.9661196E+00
-2.3831250E+00,+2.9585820E+00
-2.3828125E+00,+2.9485317E+00
-2.3825000E+00,+2.9397377E+00
-2.3821875E+00,+2.9284312E+00
-2.3818750E+00,+2.9183810E+00
-2.3815625E+00,+2.9070744E+00
-2.3812500E+00,+2.8945116E+00
-2.3809375E+00,+2.8819488E+00
-2.3806250E+00,+2.8681297E+00
-2.3803125E+00,+2.8543106E+00
-2.3800000E+00,+2.8392352E+00
-2.3796875E+00,+2.8241598E+00
-2.3793750E+00,+2.8078282E+00
-2.3790625E+00,+2.7914965E+00
-2.3787500E+00,+2.7739086E+00
-2.3784375E+00,+2.7563207E+00
-2.3781250E+00,+2.7362202E+00
-2.3778125E+00,+2.7161196E+00
-2.3775000E+00,+2.6960191E+00
-2.3771875E+00,+2.6759186E+00
-2.3768750E+00,+2.6545619E+00
-2.3765625E+00,+2.6319488E+00
-2.3762500E+00,+2.6093357E+00
-2.3759375E+00,+2.5867227E+00
-2.3756250E+00,+2.5628533E+00
-2.3753125E+00,+2.5364714E+00
-2.3750000E+00,+2.5126021E+00
-2.3746875E+00,+2.4874764E+00
-2.3743750E+00,+2.4598382E+00
-2.3740625E+00,+2.4334563E+00
-2.3737500E+00,+2.4058181E+00
-2.3734375E+00,+2.3794362E+00
-2.3731250E+00,+2.3530543E+00
-2.3728125E+00,+2.3254161E+00
-2.3725000E+00,+2.2965217E+00
-2.3721875E+00,+2.2688835E+00
-2.3718750E+00,+2.2425016E+00
-2.3715625E+00,+2.2148634E+00
-2.3712500E+00,+2.1872252E+00
-2.3709375E+00,+2.1595870E+00
-2.3706250E+00,+2.1319488E+00
-2.3703125E+00,+2.1043106E+00
-2.3700000E+00,+2.0766724E+00
-2.3696875E+00,+2.0490342E+00
-2.3693750E+00,+2.0226523E+00
-2.3690625E+00,+1.9937578E+00
-2.3687500E+00,+1.9673759E+00
-2.3684375E+00,+1.9397377E+00
-2.3681250E+00,+1.9108433E+00
-2.3678125E+00,+1.8844614E+00
-2.3675000E+00,+1.8580795E+00
-2.3671875E+00,+1.8304413E+00
-2.3668750E+00,+1.8015468E+00
-2.3665625E+00,+1.7751649E+00
-2.3662500E+00,+1.7475267E+00
-2.3659375E+00,+1.7198885E+00
-2.3656250E+00,+1.6922503E+00
-2.3653125E+00,+1.6646121E+00
-2.3650000E+00,+1.6382302E+00
-2.3646875E+00,+1.6093357E+00
-2.3643750E+00,+1.5829538E+00
-2.3640625E+00,+1.5553156E+00
-2.3637500E+00,+1.5289337E+00
-2.3634375E+00,+1.5012955E+00
-2.3631250E+00,+1.4749136E+00
-2.3628125E+00,+1.4472754E+00
-2.3625000E+00,+1.4221498E+00
-2.3621875E+00,+1.3945116E+00
-2.3618750E+00,+1.3668734E+00
-2.3615625E+00,+1.3392352E+00
-2.3612500E+00,+1.3115970E+00
-2.3609375E+00,+1.2852151E+00
-2.3606250E+00,+1.2575769E+00
-2.3603125E+00,+1.2299388E+00
-2.3600000E+00,+1.2023006E+00
-2.3596875E+00,+1.1746624E+00
-2.3593750E+00,+1.1470242E+00
-2.3590625E+00,+1.1206423E+00
-2.3587500E+00,+1.0930041E+00
-2.3584375E+00,+1.0653659E+00
-2.3581250E+00,+1.0364714E+00
-2.3578125E+00,+1.0100895E+00
-2.3575000E+00,+982.4513E-03
-2.3571875E+00,+956.0694E-03
-2.3568750E+00,+927.1749E-03
-2.3565625E+00,+900.7930E-03
-2.3562500E+00,+873.1548E-03
-2.3559375E+00,+845.5167E-03
-2.3556250E+00,+819.1347E-03
-2.3553125E+00,+794.0091E-03
-2.3550000E+00,+768.8835E-03
-2.3546875E+00,+745.0141E-03
-2.3543750E+00,+721.1448E-03
-2.3540625E+00,+698.5317E-03
-2.3537500E+00,+677.1749E-03
-2.3534375E+00,+655.8182E-03
-2.3531250E+00,+635.7177E-03
-2.3528125E+00,+616.8734E-03
-2.3525000E+00,+599.2855E-03
-2.3521875E+00,+581.6976E-03
-2.3518750E+00,+564.1096E-03
-2.3515625E+00,+547.7780E-03
-2.3512500E+00,+532.7026E-03
-2.3509375E+00,+518.8835E-03
-2.3506250E+00,+505.0644E-03
-2.3503125E+00,+492.5016E-03
-2.3500000E+00,+479.9388E-03
-2.3496875E+00,+469.8885E-03
-2.3493750E+00,+459.8383E-03
-2.3490625E+00,+449.7880E-03
-2.3487500E+00,+440.9940E-03
-2.3484375E+00,+433.4564E-03
-2.3481250E+00,+425.9187E-03
-2.3478125E+00,+418.3810E-03
-2.3475000E+00,+412.0996E-03
-2.3471875E+00,+407.0744E-03
-2.3468750E+00,+402.0493E-03
-2.3465625E+00,+398.2805E-03
-2.3462500E+00,+395.7679E-03
-2.3459375E+00,+395.7679E-03
-2.3456250E+00,+393.2554E-03
-2.3453125E+00,+393.2554E-03
-2.3450000E+00,+393.2554E-03
-2.3446875E+00,+394.5116E-03
-2.3443750E+00,+395.7679E-03
-2.3440625E+00,+398.2805E-03
-2.3437500E+00,+400.7930E-03
-2.3434375E+00,+405.8182E-03
-2.3431250E+00,+410.8433E-03
-2.3428125E+00,+415.8684E-03
-2.3425000E+00,+423.4061E-03
-2.3421875E+00,+430.9438E-03
-2.3418750E+00,+437.2252E-03
-2.3415625E+00,+447.2755E-03
-2.3412500E+00,+454.8131E-03
-2.3409375E+00,+466.1197E-03
-2.3406250E+00,+476.1699E-03
-2.3403125E+00,+487.4765E-03
-2.3400000E+00,+500.0393E-03
-2.3396875E+00,+513.8584E-03
-2.3393750E+00,+528.9337E-03
-2.3390625E+00,+542.7528E-03
-2.3387500E+00,+559.0845E-03
-2.3384375E+00,+575.4162E-03
-2.3381250E+00,+593.0041E-03
-2.3378125E+00,+610.5920E-03
-2.3375000E+00,+629.4363E-03
-2.3371875E+00,+648.2805E-03
-2.3368750E+00,+667.1247E-03
-2.3365625E+00,+687.2252E-03
-2.3362500E+00,+706.0694E-03
-2.3359375E+00,+727.4262E-03
-2.3356250E+00,+748.7830E-03
-2.3353125E+00,+771.3961E-03
-2.3350000E+00,+791.4966E-03
-2.3346875E+00,+814.1096E-03
-2.3343750E+00,+835.4664E-03
-2.3340625E+00,+859.3357E-03
-2.3337500E+00,+880.6925E-03
-2.3334375E+00,+902.0493E-03
-2.3331250E+00,+924.6624E-03
-2.3328125E+00,+944.7629E-03
-2.3325000E+00,+966.1197E-03
-2.3321875E+00,+986.2202E-03
-2.3318750E+00,+1.0063207E+00
-2.3315625E+00,+1.0251649E+00
-2.3312500E+00,+1.0452654E+00
-2.3309375E+00,+1.0641096E+00
-2.3306250E+00,+1.0829538E+00
-2.3303125E+00,+1.1005418E+00
-2.3300000E+00,+1.1181297E+00
-2.3296875E+00,+1.1357177E+00
-2.3293750E+00,+1.1533056E+00
-2.3290625E+00,+1.1708935E+00
-2.3287500E+00,+1.1847126E+00
-2.3284375E+00,+1.2010443E+00
-2.3281250E+00,+1.2161197E+00
-2.3278125E+00,+1.2311950E+00
-2.3275000E+00,+1.2462704E+00
-2.3271875E+00,+1.2613458E+00
-2.3268750E+00,+1.2751649E+00
-2.3265625E+00,+1.2877277E+00
-2.3262500E+00,+1.3002905E+00
-2.3259375E+00,+1.3128533E+00
-2.3256250E+00,+1.3254161E+00
-2.3253125E+00,+1.3367227E+00
-2.3250000E+00,+1.3480292E+00
-2.3246875E+00,+1.3593357E+00
-2.3243750E+00,+1.3706423E+00
-2.3240625E+00,+1.3806925E+00
-2.3237500E+00,+1.3907428E+00
-2.3234375E+00,+1.3995367E+00
-2.3231250E+00,+1.4083307E+00
-2.3228125E+00,+1.4171247E+00
-2.3225000E+00,+1.4259187E+00
-2.3221875E+00,+1.4347126E+00
-2.3218750E+00,+1.4409940E+00
-2.3215625E+00,+1.4472754E+00
-2.3212500E+00,+1.4535568E+00
-2.3209375E+00,+1.4598383E+00
-2.3206250E+00,+1.4648634E+00
-2.3203125E+00,+1.4711448E+00
-2.3200000E+00,+1.4761699E+00
-2.3196875E+00,+1.4811950E+00
-2.3193750E+00,+1.4849639E+00
-2.3190625E+00,+1.4899890E+00
-2.3187500E+00,+1.4937579E+00
-2.3184375E+00,+1.4962704E+00
-2.3181250E+00,+1.4987830E+00
-2.3178125E+00,+1.5012955E+00
-2.3175000E+00,+1.5025518E+00
-2.3171875E+00,+1.5038081E+00
-2.3168750E+00,+1.5050644E+00
-2.3165625E+00,+1.5063207E+00
-2.3162500E+00,+1.5075769E+00
-2.3159375E+00,+1.5075769E+00
-2.3156250E+00,+1.5075769E+00
-2.3153125E+00,+1.5075769E+00
-2.3150000E+00,+1.5075769E+00
-2.3146875E+00,+1.5088332E+00
-2.3143750E+00,+1.5075769E+00
-2.3140625E+00,+1.5075769E+00
-2.3137500E+00,+1.5075769E+00
-2.3134375E+00,+1.5075769E+00
-2.3131250E+00,+1.5075769E+00
-2.3128125E+00,+1.5075769E+00
-2.3125000E+00,+1.5075769E+00
-2.3121875E+00,+1.5075769E+00
-2.3118750E+00,+1.5088332E+00
-2.3115625E+00,+1.5075769E+00
-2.3112500E+00,+1.5088332E+00
-2.3109375E+00,+1.5075769E+00
-2.3106250E+00,+1.5088332E+00
-2.3103125E+00,+1.5088332E+00
-2.3100000E+00,+1.5088332E+00
-2.3096875E+00,+1.5088332E+00
-2.3093750E+00,+1.5088332E+00
-2.3090625E+00,+1.5088332E+00
-2.3087500E+00,+1.5088332E+00
-2.3084375E+00,+1.5100895E+00
-2.3081250E+00,+1.5088332E+00
-2.3078125E+00,+1.5088332E+00
-2.3075000E+00,+1.5088332E+00
-2.3071875E+00,+1.5100895E+00
-2.3068750E+00,+1.5100895E+00
-2.3065625E+00,+1.5100895E+00
-2.3062500E+00,+1.5100895E+00
-2.3059375E+00,+1.5100895E+00
-2.3056250E+00,+1.5100895E+00
-2.3053125E+00,+1.5100895E+00
-2.3050000E+00,+1.5088332E+00
-2.3046875E+00,+1.5100895E+00
-2.3043750E+00,+1.5100895E+00
-2.3040625E+00,+1.5100895E+00
-2.3037500E+00,+1.5100895E+00
-2.3034375E+00,+1.5100895E+00
-2.3031250E+00,+1.5100895E+00
-2.3028125E+00,+1.5100895E+00
-2.3025000E+00,+1.5100895E+00
-2.3021875E+00,+1.5100895E+00
-2.3018750E+00,+1.5113458E+00
-2.3015625E+00,+1.5113458E+00
-2.3012500E+00,+1.5113458E+00
-2.3009375E+00,+1.5113458E+00
-2.3006250E+00,+1.5113458E+00
-2.3003125E+00,+1.5113458E+00
-2.3000000E+00,+1.5113458E+00
-2.2996875E+00,+1.5113458E+00
-2.2993750E+00,+1.5113458E+00
-2.2990625E+00,+1.5113458E+00
-2.2987500E+00,+1.5113458E+00
-2.2984375E+00,+1.5113458E+00
-2.2981250E+00,+1.5126021E+00
-2.2978125E+00,+1.5126021E+00
-2.2975000E+00,+1.5126021E+00
-2.2971875E+00,+1.5126021E+00
-2.2968750E+00,+1.5113458E+00
-2.2965625E+00,+1.5126021E+00
-2.2962500E+00,+1.5126021E+00
-2.2959375E+00,+1.5126021E+00
-2.2956250E+00,+1.5126021E+00
-2.2953125E+00,+1.5126021E+00
-2.2950000E+00,+1.5138584E+00
-2.2946875E+00,+1.5126021E+00
-2.2943750E+00,+1.5138584E+00
-2.2940625E+00,+1.5126021E+00
-2.2937500E+00,+1.5138584E+00
-2.2934375E+00,+1.5138584E+00
-2.2931250E+00,+1.5138584E+00
-2.2928125E+00,+1.5138584E+00
-2.2925000E+00,+1.5138584E+00
-2.2921875E+00,+1.5138584E+00
-2.2918750E+00,+1.5138584E+00
-2.2915625E+00,+1.5138584E+00
-2.2912500E+00,+1.5138584E+00
-2.2909375E+00,+1.5138584E+00
-2.2906250E+00,+1.5138584E+00
-2.2903125E+00,+1.5138584E+00
-2.2900000E+00,+1.5138584E+00
-2.2896875E+00,+1.5138584E+00
-2.2893750E+00,+1.5138584E+00
-2.2890625E+00,+1.5138584E+00
-2.2887500E+00,+1.5138584E+00
-2.2884375E+00,+1.5151146E+00
-2.2881250E+00,+1.5151146E+00
-2.2878125E+00,+1.5151146E+00
-2.2875000E+00,+1.5151146E+00
-2.2871875E+00,+1.5151146E+00
-2.2868750E+00,+1.5151146E+00
-2.2865625E+00,+1.5138584E+00
-2.2862500E+00,+1.5138584E+00
-2.2859375E+00,+1.5138584E+00
-2.2856250E+00,+1.5151146E+00
-2.2853125E+00,+1.5151146E+00
-2.2850000E+00,+1.5151146E+00
-2.2846875E+00,+1.5151146E+00
-2.2843750E+00,+1.5151146E+00
-2.2840625E+00,+1.5151146E+00
-2.2837500E+00,+1.5151146E+00
-2.2834375E+00,+1.5151146E+00
-2.2831250E+00,+1.5151146E+00
-2.2828125E+00,+1.5163709E+00
-2.2825000E+00,+1.5151146E+00
-2.2821875E+00,+1.5151146E+00
-2.2818750E+00,+1.5163709E+00
-2.2815625E+00,+1.5151146E+00
-2.2812500E+00,+1.5163709E+00
-2.2809375E+00,+1.5163709E+00
-2.2806250E+00,+1.5151146E+00
-2.2803125E+00,+1.5151146E+00
-2.2800000E+00,+1.5163709E+00
-2.2796875E+00,+1.5163709E+00
-2.2793750E+00,+1.5163709E+00
-2.2790625E+00,+1.5163709E+00
-2.2787500E+00,+1.5163709E+00
-2.2784375E+00,+1.5163709E+00
-2.2781250E+00,+1.5163709E+00
-2.2778125E+00,+1.5163709E+00
-2.2775000E+00,+1.5163709E+00
-2.2771875E+00,+1.5163709E+00
-2.2768750E+00,+1.5176272E+00
-2.2765625E+00,+1.5163709E+00
-2.2762500E+00,+1.5176272E+00
-2.2759375E+00,+1.5163709E+00
-2.2756250E+00,+1.5163709E+00
-2.2753125E+00,+1.5176272E+00
-2.2750000E+00,+1.5176272E+00
-2.2746875E+00,+1.5176272E+00
-2.2743750E+00,+1.5176272E+00
-2.2740625E+00,+1.5176272E+00
-2.2737500E+00,+1.5176272E+00
-2.2734375E+00,+1.5176272E+00
-2.2731250E+00,+1.5176272E+00
-2.2728125E+00,+1.5176272E+00
-2.2725000E+00,+1.5176272E+00
-2.2721875E+00,+1.5176272E+00
-2.2718750E+00,+1.5176272E+00
-2.2715625E+00,+1.5176272E+00
-2.2712500E+00,+1.5176272E+00
-2.2709375E+00,+1.5176272E+00
-2.2706250E+00,+1.5176272E+00
-2.2703125E+00,+1.5176272E+00
-2.2700000E+00,+1.5176272E+00
-2.2696875E+00,+1.5176272E+00
-2.2693750E+00,+1.5176272E+00
-2.2690625E+00,+1.5176272E+00
-2.2687500E+00,+1.5188835E+00
-2.2684375E+00,+1.5176272E+00
-2.2681250E+00,+1.5188835E+00
-2.2678125E+00,+1.5176272E+00
-2.2675000E+00,+1.5188835E+00
-2.2671875E+00,+1.5188835E+00
-2.2668750E+00,+1.5188835E+00
-2.2665625E+00,+1.5188835E+00
-2.2662500E+00,+1.5188835E+00
-2.2659375E+00,+1.5188835E+00
-2.2656250E+00,+1.5188835E+00
-2.2653125E+00,+1.5188835E+00
-2.2650000E+00,+1.5188835E+00
-2.2646875E+00,+1.5201398E+00
-2.2643750E+00,+1.5201398E+00
-2.2640625E+00,+1.5201398E+00
-2.2637500E+00,+1.5201398E+00
-2.2634375E+00,+1.5201398E+00
-2.2631250E+00,+1.5201398E+00
-2.2628125E+00,+1.5201398E+00
-2.2625000E+00,+1.5201398E+00
-2.2621875E+00,+1.5188835E+00
-2.2618750E+00,+1.5201398E+00
-2.2615625E+00,+1.5201398E+00
-2.2612500E+00,+1.5188835E+00
-2.2609375E+00,+1.5201398E+00
-2.2606250E+00,+1.5201398E+00
-2.2603125E+00,+1.5188835E+00
-2.2600000E+00,+1.5201398E+00
-2.2596875E+00,+1.5201398E+00
-2.2593750E+00,+1.5201398E+00
-2.2590625E+00,+1.5201398E+00
-2.2587500E+00,+1.5201398E+00
-2.2584375E+00,+1.5201398E+00
-2.2581250E+00,+1.5201398E+00
-2.2578125E+00,+1.5213960E+00
-2.2575000E+00,+1.5213960E+00
-2.2571875E+00,+1.5213960E+00
-2.2568750E+00,+1.5201398E+00
-2.2565625E+00,+1.5201398E+00
-2.2562500E+00,+1.5213960E+00
-2.2559375E+00,+1.5213960E+00
-2.2556250E+00,+1.5213960E+00
-2.2553125E+00,+1.5213960E+00
-2.2550000E+00,+1.5213960E+00
-2.2546875E+00,+1.5213960E+00
-2.2543750E+00,+1.5213960E+00
-2.2540625E+00,+1.5226523E+00
-2.2537500E+00,+1.5226523E+00
-2.2534375E+00,+1.5213960E+00
-2.2531250E+00,+1.5213960E+00
-2.2528125E+00,+1.5213960E+00
-2.2525000E+00,+1.5213960E+00
-2.2521875E+00,+1.5213960E+00
-2.2518750E+00,+1.5213960E+00
-2.2515625E+00,+1.5226523E+00
-2.2512500E+00,+1.5213960E+00
-2.2509375E+00,+1.5213960E+00
-2.2506250E+00,+1.5213960E+00
-2.2503125E+00,+1.5213960E+00
-2.2500000E+00,+1.5213960E+00
-2.2496875E+00,+1.5213960E+00
-2.2493750E+00,+1.5226523E+00
-2.2490625E+00,+1.5226523E+00
-2.2487500E+00,+1.5213960E+00
-2.2484375E+00,+1.5226523E+00
-2.2481250E+00,+1.5226523E+00
-2.2478125E+00,+1.5226523E+00
-2.2475000E+00,+1.5226523E+00
-2.2471875E+00,+1.5226523E+00
-2.2468750E+00,+1.5239086E+00
-2.2465625E+00,+1.5226523E+00
-2.2462500E+00,+1.5226523E+00
-2.2459375E+00,+1.5226523E+00
-2.2456250E+00,+1.5239086E+00
-2.2453125E+00,+1.5239086E+00
-2.2450000E+00,+1.5239086E+00
-2.2446875E+00,+1.5226523E+00
-2.2443750E+00,+1.5239086E+00
-2.2440625E+00,+1.5239086E+00
-2.2437500E+00,+1.5239086E+00
-2.2434375E+00,+1.5239086E+00
-2.2431250E+00,+1.5239086E+00
-2.2428125E+00,+1.5239086E+00
-2.2425000E+00,+1.5239086E+00
-2.2421875E+00,+1.5239086E+00
-2.2418750E+00,+1.5239086E+00
-2.2415625E+00,+1.5239086E+00
-2.2412500E+00,+1.5239086E+00
-2.2409375E+00,+1.5239086E+00
-2.2406250E+00,+1.5251649E+00
-2.2403125E+00,+1.5239086E+00
-2.2400000E+00,+1.5239086E+00
-2.2396875E+00,+1.5239086E+00
-2.2393750E+00,+1.5239086E+00
-2.2390625E+00,+1.5251649E+00
-2.2387500E+00,+1.5251649E+00
-2.2384375E+00,+1.5251649E+00
-2.2381250E+00,+1.5251649E+00
-2.2378125E+00,+1.5251649E+00
-2.2375000E+00,+1.5251649E+00
-2.2371875E+00,+1.5251649E+00
-2.2368750E+00,+1.5251649E+00
-2.2365625E+00,+1.5251649E+00
-2.2362500E+00,+1.5251649E+00
-2.2359375E+00,+1.5264212E+00
-2.2356250E+00,+1.5264212E+00
-2.2353125E+00,+1.5264212E+00
-2.2350000E+00,+1.5264212E+00
-2.2346875E+00,+1.5264212E+00
-2.2343750E+00,+1.5264212E+00
-2.2340625E+00,+1.5264212E+00
-2.2337500E+00,+1.5264212E+00
-2.2334375E+00,+1.5264212E+00
-2.2331250E+00,+1.5264212E+00
-2.2328125E+00,+1.5264212E+00
-2.2325000E+00,+1.5264212E+00
-2.2321875E+00,+1.5276774E+00
-2.2318750E+00,+1.5264212E+00
-2.2315625E+00,+1.5276774E+00
-2.2312500E+00,+1.5264212E+00
-2.2309375E+00,+1.5264212E+00
-2.2306250E+00,+1.5276774E+00
-2.2303125E+00,+1.5276774E+00
-2.2300000E+00,+1.5276774E+00
-2.2296875E+00,+1.5276774E+00
-2.2293750E+00,+1.5276774E+00
-2.2290625E+00,+1.5276774E+00
-2.2287500E+00,+1.5276774E+00
-2.2284375E+00,+1.5276774E+00
-2.2281250E+00,+1.5276774E+00
-2.2278125E+00,+1.5276774E+00
-2.2275000E+00,+1.5276774E+00
-2.2271875E+00,+1.5276774E+00
-2.2268750E+00,+1.5289337E+00
-2.2265625E+00,+1.5289337E+00
-2.2262500E+00,+1.5289337E+00
-2.2259375E+00,+1.5289337E+00
-2.2256250E+00,+1.5289337E+00
-2.2253125E+00,+1.5289337E+00
-2.2250000E+00,+1.5289337E+00
-2.2246875E+00,+1.5289337E+00
-2.2243750E+00,+1.5289337E+00
-2.2240625E+00,+1.5289337E+00
-2.2237500E+00,+1.5289337E+00
-2.2234375E+00,+1.5289337E+00
-2.2231250E+00,+1.5289337E+00
-2.2228125E+00,+1.5289337E+00
-2.2225000E+00,+1.5289337E+00
-2.2221875E+00,+1.5289337E+00
-2.2218750E+00,+1.5289337E+00
-2.2215625E+00,+1.5289337E+00
-2.2212500E+00,+1.5289337E+00
-2.2209375E+00,+1.5289337E+00
-2.2206250E+00,+1.5289337E+00
-2.2203125E+00,+1.5301900E+00
-2.2200000E+00,+1.5301900E+00
-2.2196875E+00,+1.5289337E+00
-2.2193750E+00,+1.5301900E+00
-2.2190625E+00,+1.5301900E+00
-2.2187500E+00,+1.5276774E+00
-2.2184375E+00,+1.5276774E+00
-2.2181250E+00,+1.5289337E+00
-2.2178125E+00,+1.5289337E+00
-2.2175000E+00,+1.5289337E+00
-2.2171875E+00,+1.5289337E+00
-2.2168750E+00,+1.5289337E+00
-2.2165625E+00,+1.5289337E+00
-2.2162500E+00,+1.5289337E+00
-2.2159375E+00,+1.5301900E+00
-2.2156250E+00,+1.5289337E+00
-2.2153125E+00,+1.5289337E+00
-2.2150000E+00,+1.5301900E+00
-2.2146875E+00,+1.5301900E+00
-2.2143750E+00,+1.5301900E+00
-2.2140625E+00,+1.5314463E+00
-2.2137500E+00,+1.5301900E+00
-2.2134375E+00,+1.5314463E+00
-2.2131250E+00,+1.5301900E+00
-2.2128125E+00,+1.5314463E+00
-2.2125000E+00,+1.5301900E+00
-2.2121875E+00,+1.5314463E+00
-2.2118750E+00,+1.5314463E+00
-2.2115625E+00,+1.5314463E+00
-2.2112500E+00,+1.5327026E+00
-2.2109375E+00,+1.5314463E+00
-2.2106250E+00,+1.5314463E+00
-2.2103125E+00,+1.5314463E+00
-2.2100000E+00,+1.5314463E+00
-2.2096875E+00,+1.5327026E+00
-2.2093750E+00,+1.5327026E+00
-2.2090625E+00,+1.5314463E+00
-2.2087500E+00,+1.5314463E+00
-2.2084375E+00,+1.5314463E+00
-2.2081250E+00,+1.5314463E+00
-2.2078125E+00,+1.5314463E+00
-2.2075000E+00,+1.5314463E+00
-2.2071875E+00,+1.5327026E+00
-2.2068750E+00,+1.5327026E+00
-2.2065625E+00,+1.5327026E+00
-2.2062500E+00,+1.5339589E+00
-2.2059375E+00,+1.5339589E+00
-2.2056250E+00,+1.5339589E+00
-2.2053125E+00,+1.5339589E+00
-2.2050000E+00,+1.5339589E+00
-2.2046875E+00,+1.5339589E+00
-2.2043750E+00,+1.5339589E+00
-2.2040625E+00,+1.5339589E+00
-2.2037500E+00,+1.5339589E+00
-2.2034375E+00,+1.5339589E+00
-2.2031250E+00,+1.5339589E+00
-2.2028125E+00,+1.5352151E+00
-2.2025000E+00,+1.5352151E+00
-2.2021875E+00,+1.5339589E+00
-2.2018750E+00,+1.5339589E+00
-2.2015625E+00,+1.5339589E+00
-2.2012500E+00,+1.5352151E+00
-2.2009375E+00,+1.5352151E+00
-2.2006250E+00,+1.5339589E+00
-2.2003125E+00,+1.5339589E+00
-2.2000000E+00,+1.5352151E+00
-2.1996875E+00,+1.5339589E+00
-2.1993750E+00,+1.5352151E+00
-2.1990625E+00,+1.5352151E+00
-2.1987500E+00,+1.5352151E+00
-2.1984375E+00,+1.5364714E+00
-2.1981250E+00,+1.5364714E+00
-2.1978125E+00,+1.5364714E+00
-2.1975000E+00,+1.5364714E+00
-2.1971875E+00,+1.5364714E+00
-2.1968750E+00,+1.5364714E+00
-2.1965625E+00,+1.5364714E+00
-2.1962500E+00,+1.5364714E+00
-2.1959375E+00,+1.5364714E+00
-2.1956250E+00,+1.5364714E+00
-2.1953125E+00,+1.5364714E+00
-2.1950000E+00,+1.5364714E+00
-2.1946875E+00,+1.5364714E+00
-2.1943750E+00,+1.5364714E+00
-2.1940625E+00,+1.5364714E+00
-2.1937500E+00,+1.5364714E+00
-2.1934375E+00,+1.5364714E+00
-2.1931250E+00,+1.5364714E+00
-2.1928125E+00,+1.5364714E+00
-2.1925000E+00,+1.5364714E+00
-2.1921875E+00,+1.5364714E+00
-2.1918750E+00,+1.5364714E+00
-2.1915625E+00,+1.5364714E+00
-2.1912500E+00,+1.5364714E+00
-2.1909375E+00,+1.5377277E+00
-2.1906250E+00,+1.5364714E+00
-2.1903125E+00,+1.5377277E+00
-2.1900000E+00,+1.5364714E+00
-2.1896875E+00,+1.5377277E+00
-2.1893750E+00,+1.5377277E+00
-2.1890625E+00,+1.5389840E+00
-2.1887500E+00,+1.5389840E+00
-2.1884375E+00,+1.5389840E+00
-2.1881250E+00,+1.5402403E+00
-2.1878125E+00,+1.5389840E+00
-2.1875000E+00,+1.5402403E+00
-2.1871875E+00,+1.5402403E+00
-2.1868750E+00,+1.5414965E+00
-2.1865625E+00,+1.5414965E+00
-2.1862500E+00,+1.5414965E+00
-2.1859375E+00,+1.5427528E+00
-2.1856250E+00,+1.5427528E+00
-2.1853125E+00,+1.5427528E+00
-2.1850000E+00,+1.5440091E+00
-2.1846875E+00,+1.5452654E+00
-2.1843750E+00,+1.5452654E+00
-2.1840625E+00,+1.5452654E+00
-2.1837500E+00,+1.5465217E+00
-2.1834375E+00,+1.5465217E+00
-2.1831250E+00,+1.5477780E+00
-2.1828125E+00,+1.5490342E+00
-2.1825000E+00,+1.5502905E+00
-2.1821875E+00,+1.5502905E+00
-2.1818750E+00,+1.5515468E+00
-2.1815625E+00,+1.5515468E+00
-2.1812500E+00,+1.5528031E+00
-2.1809375E+00,+1.5540594E+00
-2.1806250E+00,+1.5553156E+00
-2.1803125E+00,+1.5553156E+00
-2.1800000E+00,+1.5565719E+00
-2.1796875E+00,+1.5578282E+00
-2.1793750E+00,+1.5590845E+00
-2.1790625E+00,+1.5590845E+00
-2.1787500E+00,+1.5603408E+00
-2.1784375E+00,+1.5603408E+00
-2.1781250E+00,+1.5628533E+00
-2.1778125E+00,+1.5628533E+00
-2.1775000E+00,+1.5641096E+00
-2.1771875E+00,+1.5653659E+00
-2.1768750E+00,+1.5666222E+00
-2.1765625E+00,+1.5678785E+00
-2.1762500E+00,+1.5691347E+00
-2.1759375E+00,+1.5703910E+00
-2.1756250E+00,+1.5716473E+00
-2.1753125E+00,+1.5729036E+00
-2.1750000E+00,+1.5741599E+00
-2.1746875E+00,+1.5754161E+00
-2.1743750E+00,+1.5766724E+00
-2.1740625E+00,+1.5791850E+00
-2.1737500E+00,+1.5791850E+00
-2.1734375E+00,+1.5804413E+00
-2.1731250E+00,+1.5816975E+00
-2.1728125E+00,+1.5829538E+00
-2.1725000E+00,+1.5854664E+00
-2.1721875E+00,+1.5867227E+00
-2.1718750E+00,+1.5879790E+00
-2.1715625E+00,+1.5904915E+00
-2.1712500E+00,+1.5917478E+00
-2.1709375E+00,+1.5942604E+00
-2.1706250E+00,+1.5955166E+00
-2.1703125E+00,+1.5967729E+00
-2.1700000E+00,+1.5980292E+00
-2.1696875E+00,+1.6005418E+00
-2.1693750E+00,+1.6017981E+00
-2.1690625E+00,+1.6030543E+00
-2.1687500E+00,+1.6043106E+00
-2.1684375E+00,+1.6055669E+00
-2.1681250E+00,+1.6080795E+00
-2.1678125E+00,+1.6093357E+00
-2.1675000E+00,+1.6105920E+00
-2.1671875E+00,+1.6131046E+00
-2.1668750E+00,+1.6143609E+00
-2.1665625E+00,+1.6156171E+00
-2.1662500E+00,+1.6168734E+00
-2.1659375E+00,+1.6193860E+00
-2.1656250E+00,+1.6218986E+00
-2.1653125E+00,+1.6218986E+00
-2.1650000E+00,+1.6231548E+00
-2.1646875E+00,+1.6256674E+00
-2.1643750E+00,+1.6269237E+00
-2.1640625E+00,+1.6281800E+00
-2.1637500E+00,+1.6306925E+00
-2.1634375E+00,+1.6319488E+00
-2.1631250E+00,+1.6332051E+00
-2.1628125E+00,+1.6357176E+00
-2.1625000E+00,+1.6369739E+00
-2.1621875E+00,+1.6382302E+00
-2.1618750E+00,+1.6407428E+00
-2.1615625E+00,+1.6419991E+00
-2.1612500E+00,+1.6432553E+00
-2.1609375E+00,+1.6445116E+00
-2.1606250E+00,+1.6470242E+00
-2.1603125E+00,+1.6482805E+00
-2.1600000E+00,+1.6495367E+00
-2.1596875E+00,+1.6520493E+00
-2.1593750E+00,+1.6533056E+00
-2.1590625E+00,+1.6558182E+00
-2.1587500E+00,+1.6570744E+00
-2.1584375E+00,+1.6583307E+00
-2.1581250E+00,+1.6595870E+00
-2.1578125E+00,+1.6608433E+00
-2.1575000E+00,+1.6620996E+00
-2.1571875E+00,+1.6646121E+00
-2.1568750E+00,+1.6658684E+00
-2.1565625E+00,+1.6671247E+00
-2.1562500E+00,+1.6696372E+00
-2.1559375E+00,+1.6721498E+00
-2.1556250E+00,+1.6721498E+00
-2.1553125E+00,+1.6746624E+00
-2.1550000E+00,+1.6759187E+00
-2.1546875E+00,+1.6771749E+00
-2.1543750E+00,+1.6796875E+00
-2.1540625E+00,+1.6809438E+00
-2.1537500E+00,+1.6822001E+00
-2.1534375E+00,+1.6834563E+00
-2.1531250E+00,+1.6859689E+00
-2.1528125E+00,+1.6872252E+00
-2.1525000E+00,+1.6897377E+00
-2.1521875E+00,+1.6922503E+00
-2.1518750E+00,+1.6935066E+00
-2.1515625E+00,+1.6947629E+00
-2.1512500E+00,+1.6972754E+00
-2.1509375E+00,+1.6985317E+00
-2.1506250E+00,+1.6997880E+00
-2.1503125E+00,+1.7010443E+00
-2.1500000E+00,+1.7035568E+00
-2.1496875E+00,+1.7048131E+00
-2.1493750E+00,+1.7060694E+00
-2.1490625E+00,+1.7085820E+00
-2.1487500E+00,+1.7098383E+00
-2.1484375E+00,+1.7123508E+00
-2.1481250E+00,+1.7136071E+00
-2.1478125E+00,+1.7161197E+00
-2.1475000E+00,+1.7173759E+00
-2.1471875E+00,+1.7186322E+00
-2.1468750E+00,+1.7198885E+00
-2.1465625E+00,+1.7211448E+00
-2.1462500E+00,+1.7224011E+00
-2.1459375E+00,+1.7236573E+00
-2.1456250E+00,+1.7261699E+00
-2.1453125E+00,+1.7274262E+00
-2.1450000E+00,+1.7299388E+00
-2.1446875E+00,+1.7311950E+00
-2.1443750E+00,+1.7337076E+00
-2.1440625E+00,+1.7349639E+00
-2.1437500E+00,+1.7362202E+00
-2.1434375E+00,+1.7374764E+00
-2.1431250E+00,+1.7387327E+00
-2.1428125E+00,+1.7412453E+00
-2.1425000E+00,+1.7425016E+00
-2.1421875E+00,+1.7437578E+00
-2.1418750E+00,+1.7450141E+00
-2.1415625E+00,+1.7475267E+00
-2.1412500E+00,+1.7487830E+00
-2.1409375E+00,+1.7500393E+00
-2.1406250E+00,+1.7525518E+00
-2.1403125E+00,+1.7550644E+00
-2.1400000E+00,+1.7563207E+00
-2.1396875E+00,+1.7575769E+00
-2.1393750E+00,+1.7588332E+00
-2.1390625E+00,+1.7613458E+00
-2.1387500E+00,+1.7626021E+00
-2.1384375E+00,+1.7651146E+00
-2.1381250E+00,+1.7663709E+00
-2.1378125E+00,+1.7676272E+00
-2.1375000E+00,+1.7701398E+00
-2.1371875E+00,+1.7713960E+00
-2.1368750E+00,+1.7726523E+00
-2.1365625E+00,+1.7739086E+00
-2.1362500E+00,+1.7764212E+00
-2.1359375E+00,+1.7776774E+00
-2.1356250E+00,+1.7801900E+00
-2.1353125E+00,+1.7801900E+00
-2.1350000E+00,+1.7827026E+00
-2.1346875E+00,+1.7827026E+00
-2.1343750E+00,+1.7852151E+00
-2.1340625E+00,+1.7864714E+00
-2.1337500E+00,+1.7889840E+00
-2.1334375E+00,+1.7902403E+00
-2.1331250E+00,+1.7927528E+00
-2.1328125E+00,+1.7927528E+00
-2.1325000E+00,+1.7952654E+00
-2.1321875E+00,+1.7952654E+00
-2.1318750E+00,+1.7977779E+00
-2.1315625E+00,+1.7977779E+00
-2.1312500E+00,+1.7990342E+00
-2.1309375E+00,+1.8002905E+00
-2.1306250E+00,+1.8015468E+00
-2.1303125E+00,+1.8028031E+00
-2.1300000E+00,+1.8028031E+00
-2.1296875E+00,+1.8040594E+00
-2.1293750E+00,+1.8053156E+00
-2.1290625E+00,+1.8065719E+00
-2.1287500E+00,+1.8078282E+00
-2.1284375E+00,+1.8078282E+00
-2.1281250E+00,+1.8090845E+00
-2.1278125E+00,+1.8103408E+00
-2.1275000E+00,+1.8103408E+00
-2.1271875E+00,+1.8103408E+00
-2.1268750E+00,+1.8115970E+00
-2.1265625E+00,+1.8115970E+00
-2.1262500E+00,+1.8128533E+00
-2.1259375E+00,+1.8128533E+00
-2.1256250E+00,+1.8128533E+00
-2.1253125E+00,+1.8141096E+00
-2.1250000E+00,+1.8141096E+00
-2.1246875E+00,+1.8141096E+00
-2.1243750E+00,+1.8141096E+00
-2.1240625E+00,+1.8141096E+00
-2.1237500E+00,+1.8141096E+00
-2.1234375E+00,+1.8153659E+00
-2.1231250E+00,+1.8141096E+00
-2.1228125E+00,+1.8141096E+00
-2.1225000E+00,+1.8141096E+00
-2.1221875E+00,+1.8141096E+00
-2.1218750E+00,+1.8141096E+00
-2.1215625E+00,+1.8141096E+00
-2.1212500E+00,+1.8128533E+00
-2.1209375E+00,+1.8115970E+00
-2.1206250E+00,+1.8128533E+00
-2.1203125E+00,+1.8115970E+00
-2.1200000E+00,+1.8115970E+00
-2.1196875E+00,+1.8103408E+00
-2.1193750E+00,+1.8103408E+00
-2.1190625E+00,+1.8090845E+00
-2.1187500E+00,+1.8090845E+00
-2.1184375E+00,+1.8078282E+00
-2.1181250E+00,+1.8053156E+00
-2.1178125E+00,+1.8053156E+00
-2.1175000E+00,+1.8053156E+00
-2.1171875E+00,+1.8040594E+00
-2.1168750E+00,+1.8040594E+00
-2.1165625E+00,+1.8028031E+00
-2.1162500E+00,+1.8015468E+00
-2.1159375E+00,+1.8002905E+00
-2.1156250E+00,+1.7990342E+00
-2.1153125E+00,+1.7977779E+00
-2.1150000E+00,+1.7977779E+00
-2.1146875E+00,+1.7965217E+00
-2.1143750E+00,+1.7952654E+00
-2.1140625E+00,+1.7927528E+00
-2.1137500E+00,+1.7914965E+00
-2.1134375E+00,+1.7902403E+00
-2.1131250E+00,+1.7877277E+00
-2.1128125E+00,+1.7877277E+00
-2.1125000E+00,+1.7852151E+00
-2.1121875E+00,+1.7839589E+00
-2.1118750E+00,+1.7827026E+00
-2.1115625E+00,+1.7801900E+00
-2.1112500E+00,+1.7789337E+00
-2.1109375E+00,+1.7776774E+00
-2.1106250E+00,+1.7764212E+00
-2.1103125E+00,+1.7739086E+00
-2.1100000E+00,+1.7726523E+00
-2.1096875E+00,+1.7713960E+00
-2.1093750E+00,+1.7701398E+00
-2.1090625E+00,+1.7676272E+00
-2.1087500E+00,+1.7663709E+00
-2.1084375E+00,+1.7638584E+00
-2.1081250E+00,+1.7626021E+00
-2.1078125E+00,+1.7613458E+00
-2.1075000E+00,+1.7600895E+00
-2.1071875E+00,+1.7575769E+00
-2.1068750E+00,+1.7563207E+00
-2.1065625E+00,+1.7550644E+00
-2.1062500E+00,+1.7525518E+00
-2.1059375E+00,+1.7512955E+00
-2.1056250E+00,+1.7487830E+00
-2.1053125E+00,+1.7462704E+00
-2.1050000E+00,+1.7450141E+00
-2.1046875E+00,+1.7437578E+00
-2.1043750E+00,+1.7425016E+00
-2.1040625E+00,+1.7412453E+00
-2.1037500E+00,+1.7399890E+00
-2.1034375E+00,+1.7387327E+00
-2.1031250E+00,+1.7374764E+00
-2.1028125E+00,+1.7362202E+00
-2.1025000E+00,+1.7337076E+00
-2.1021875E+00,+1.7311950E+00
-2.1018750E+00,+1.7299388E+00
-2.1015625E+00,+1.7274262E+00
-2.1012500E+00,+1.7261699E+00
-2.1009375E+00,+1.7249136E+00
-2.1006250E+00,+1.7236573E+00
-2.1003125E+00,+1.7224011E+00
-2.1000000E+00,+1.7198885E+00
-2.0996875E+00,+1.7186322E+00
-2.0993750E+00,+1.7173759E+00
-2.0990625E+00,+1.7161197E+00
-2.0987500E+00,+1.7148634E+00
-2.0984375E+00,+1.7123508E+00
-2.0981250E+00,+1.7110945E+00
-2.0978125E+00,+1.7085820E+00
-2.0975000E+00,+1.7073257E+00
-2.0971875E+00,+1.7048131E+00
-2.0968750E+00,+1.7035568E+00
-2.0965625E+00,+1.7023006E+00
-2.0962500E+00,+1.7010443E+00
-2.0959375E+00,+1.6985317E+00
-2.0956250E+00,+1.6960192E+00
-2.0953125E+00,+1.6960192E+00
-2.0950000E+00,+1.6935066E+00
-2.0946875E+00,+1.6922503E+00
-2.0943750E+00,+1.6897377E+00
-2.0940625E+00,+1.6872252E+00
-2.0937500E+00,+1.6859689E+00
-2.0934375E+00,+1.6847126E+00
-2.0931250E+00,+1.6822001E+00
-2.0928125E+00,+1.6809438E+00
-2.0925000E+00,+1.6796875E+00
-2.0921875E+00,+1.6784312E+00
-2.0918750E+00,+1.6771749E+00
-2.0915625E+00,+1.6759187E+00
-2.0912500E+00,+1.6734061E+00
-2.0909375E+00,+1.6708935E+00
-2.0906250E+00,+1.6696372E+00
-2.0903125E+00,+1.6671247E+00
-2.0900000E+00,+1.6658684E+00
-2.0896875E+00,+1.6633558E+00
-2.0893750E+00,+1.6620996E+00
-2.0890625E+00,+1.6608433E+00
-2.0887500E+00,+1.6595870E+00
-2.0884375E+00,+1.6583307E+00
-2.0881250E+00,+1.6583307E+00
-2.0878125E+00,+1.6558182E+00
-2.0875000E+00,+1.6545619E+00
-2.0871875E+00,+1.6520493E+00
-2.0868750E+00,+1.6507930E+00
-2.0865625E+00,+1.6482805E+00
-2.0862500E+00,+1.6470242E+00
-2.0859375E+00,+1.6457679E+00
-2.0856250E+00,+1.6445116E+00
-2.0853125E+00,+1.6419991E+00
-2.0850000E+00,+1.6407428E+00
-2.0846875E+00,+1.6394865E+00
-2.0843750E+00,+1.6369739E+00
-2.0840625E+00,+1.6357176E+00
-2.0837500E+00,+1.6344614E+00
-2.0834375E+00,+1.6319488E+00
-2.0831250E+00,+1.6306925E+00
-2.0828125E+00,+1.6294362E+00
-2.0825000E+00,+1.6269237E+00
-2.0821875E+00,+1.6256674E+00
-2.0818750E+00,+1.6244111E+00
-2.0815625E+00,+1.6218986E+00
-2.0812500E+00,+1.6206423E+00
-2.0809375E+00,+1.6193860E+00
-2.0806250E+00,+1.6181297E+00
-2.0803125E+00,+1.6168734E+00
-2.0800000E+00,+1.6143609E+00
-2.0796875E+00,+1.6131046E+00
-2.0793750E+00,+1.6118483E+00
-2.0790625E+00,+1.6093357E+00
-2.0787500E+00,+1.6080795E+00
-2.0784375E+00,+1.6055669E+00
-2.0781250E+00,+1.6043106E+00
-2.0778125E+00,+1.6030543E+00
-2.0775000E+00,+1.6017981E+00
-2.0771875E+00,+1.5992855E+00
-2.0768750E+00,+1.5980292E+00
-2.0765625E+00,+1.5967729E+00
-2.0762500E+00,+1.5942604E+00
-2.0759375E+00,+1.5930041E+00
-2.0756250E+00,+1.5917478E+00
-2.0753125E+00,+1.5904915E+00
-2.0750000E+00,+1.5892352E+00
-2.0746875E+00,+1.5867227E+00
-2.0743750E+00,+1.5854664E+00
-2.0740625E+00,+1.5829538E+00
-2.0737500E+00,+1.5829538E+00
-2.0734375E+00,+1.5816975E+00
-2.0731250E+00,+1.5791850E+00
-2.0728125E+00,+1.5779287E+00
-2.0725000E+00,+1.5779287E+00
-2.0721875E+00,+1.5754161E+00
-2.0718750E+00,+1.5741599E+00
-2.0715625E+00,+1.5729036E+00
-2.0712500E+00,+1.5716473E+00
-2.0709375E+00,+1.5703910E+00
-2.0706250E+00,+1.5678785E+00
-2.0703125E+00,+1.5666222E+00
-2.0700000E+00,+1.5653659E+00
-2.0696875E+00,+1.5641096E+00
-2.0693750E+00,+1.5628533E+00
-2.0690625E+00,+1.5628533E+00
-2.0687500E+00,+1.5615970E+00
-2.0684375E+00,+1.5603408E+00
-2.0681250E+00,+1.5590845E+00
-2.0678125E+00,+1.5578282E+00
-2.0675000E+00,+1.5565719E+00
-2.0671875E+00,+1.5565719E+00
-2.0668750E+00,+1.5553156E+00
-2.0665625E+00,+1.5540594E+00
-2.0662500E+00,+1.5528031E+00
-2.0659375E+00,+1.5515468E+00
-2.0656250E+00,+1.5515468E+00
-2.0653125E+00,+1.5502905E+00
-2.0650000E+00,+1.5490342E+00
-2.0646875E+00,+1.5477780E+00
-2.0643750E+00,+1.5465217E+00
-2.0640625E+00,+1.5452654E+00
-2.0637500E+00,+1.5452654E+00
-2.0634375E+00,+1.5440091E+00
-2.0631250E+00,+1.5427528E+00
-2.0628125E+00,+1.5427528E+00
-2.0625000E+00,+1.5414965E+00
-2.0621875E+00,+1.5414965E+00
-2.0618750E+00,+1.5402403E+00
-2.0615625E+00,+1.5389840E+00
-2.0612500E+00,+1.5389840E+00
-2.0609375E+00,+1.5377277E+00
-2.0606250E+00,+1.5377277E+00
-2.0603125E+00,+1.5364714E+00
-2.0600000E+00,+1.5352151E+00
-2.0596875E+00,+1.5352151E+00
-2.0593750E+00,+1.5339589E+00
-2.0590625E+00,+1.5339589E+00
-2.0587500E+00,+1.5339589E+00
-2.0584375E+00,+1.5327026E+00
-2.0581250E+00,+1.5327026E+00
-2.0578125E+00,+1.5314463E+00
-2.0575000E+00,+1.5314463E+00
-2.0571875E+00,+1.5301900E+00
-2.0568750E+00,+1.5301900E+00
-2.0565625E+00,+1.5301900E+00
-2.0562500E+00,+1.5301900E+00
-2.0559375E+00,+1.5289337E+00
-2.0556250E+00,+1.5289337E+00
-2.0553125E+00,+1.5276774E+00
-2.0550000E+00,+1.5276774E+00
-2.0546875E+00,+1.5276774E+00
-2.0543750E+00,+1.5264212E+00
-2.0540625E+00,+1.5276774E+00
-2.0537500E+00,+1.5264212E+00
-2.0534375E+00,+1.5264212E+00
-2.0531250E+00,+1.5251649E+00
-2.0528125E+00,+1.5251649E+00
-2.0525000E+00,+1.5251649E+00
-2.0521875E+00,+1.5251649E+00
-2.0518750E+00,+1.5239086E+00
-2.0515625E+00,+1.5239086E+00
-2.0512500E+00,+1.5239086E+00
-2.0509375E+00,+1.5226523E+00
-2.0506250E+00,+1.5226523E+00
-2.0503125E+00,+1.5226523E+00
-2.0500000E+00,+1.5226523E+00
-2.0496875E+00,+1.5213960E+00
-2.0493750E+00,+1.5213960E+00
-2.0490625E+00,+1.5213960E+00
-2.0487500E+00,+1.5213960E+00
-2.0484375E+00,+1.5213960E+00
-2.0481250E+00,+1.5213960E+00
-2.0478125E+00,+1.5201398E+00
-2.0475000E+00,+1.5201398E+00
-2.0471875E+00,+1.5201398E+00
-2.0468750E+00,+1.5188835E+00
-2.0465625E+00,+1.5188835E+00
-2.0462500E+00,+1.5188835E+00
-2.0459375E+00,+1.5188835E+00
-2.0456250E+00,+1.5188835E+00
-2.0453125E+00,+1.5188835E+00
-2.0450000E+00,+1.5176272E+00
-2.0446875E+00,+1.5176272E+00
-2.0443750E+00,+1.5176272E+00
-2.0440625E+00,+1.5176272E+00
-2.0437500E+00,+1.5163709E+00
-2.0434375E+00,+1.5163709E+00
-2.0431250E+00,+1.5163709E+00
-2.0428125E+00,+1.5163709E+00
-2.0425000E+00,+1.5151146E+00
-2.0421875E+00,+1.5151146E+00
-2.0418750E+00,+1.5151146E+00
-2.0415625E+00,+1.5138584E+00
-2.0412500E+00,+1.5138584E+00
-2.0409375E+00,+1.5138584E+00
-2.0406250E+00,+1.5138584E+00
-2.0403125E+00,+1.5126021E+00
-2.0400000E+00,+1.5138584E+00
-2.0396875E+00,+1.5126021E+00
-2.0393750E+00,+1.5126021E+00
-2.0390625E+00,+1.5126021E+00
-2.0387500E+00,+1.5113458E+00
-2.0384375E+00,+1.5113458E+00
-2.0381250E+00,+1.5113458E+00
-2.0378125E+00,+1.5113458E+00
-2.0375000E+00,+1.5113458E+00
-2.0371875E+00,+1.5100895E+00
-2.0368750E+00,+1.5100895E+00
-2.0365625E+00,+1.5100895E+00
-2.0362500E+00,+1.5088332E+00
-2.0359375E+00,+1.5100895E+00
-2.0356250E+00,+1.5100895E+00
-2.0353125E+00,+1.5088332E+00
-2.0350000E+00,+1.5088332E+00
-2.0346875E+00,+1.5088332E+00
-2.0343750E+00,+1.5088332E+00
-2.0340625E+00,+1.5088332E+00
-2.0337500E+00,+1.5088332E+00
-2.0334375E+00,+1.5088332E+00
-2.0331250E+00,+1.5075769E+00
-2.0328125E+00,+1.5075769E+00
-2.0325000E+00,+1.5075769E+00
-2.0321875E+00,+1.5075769E+00
-2.0318750E+00,+1.5075769E+00
-2.0315625E+00,+1.5075769E+00
-2.0312500E+00,+1.5075769E+00
-2.0309375E+00,+1.5063207E+00
-2.0306250E+00,+1.5063207E+00
-2.0303125E+00,+1.5063207E+00
-2.0300000E+00,+1.5063207E+00
-2.0296875E+00,+1.5063207E+00
-2.0293750E+00,+1.5063207E+00
-2.0290625E+00,+1.5063207E+00
-2.0287500E+00,+1.5063207E+00
-2.0284375E+00,+1.5063207E+00
-2.0281250E+00,+1.5063207E+00
-2.0278125E+00,+1.5050644E+00
-2.0275000E+00,+1.5050644E+00
-2.0271875E+00,+1.5050644E+00
-2.0268750E+00,+1.5050644E+00
-2.0265625E+00,+1.5050644E+00
-2.0262500E+00,+1.5050644E+00
-2.0259375E+00,+1.5050644E+00
-2.0256250E+00,+1.5050644E+00
-2.0253125E+00,+1.5038081E+00
-2.0250000E+00,+1.5038081E+00
-2.0246875E+00,+1.5038081E+00
-2.0243750E+00,+1.5038081E+00
-2.0240625E+00,+1.5050644E+00
-2.0237500E+00,+1.5038081E+00
-2.0234375E+00,+1.5038081E+00
-2.0231250E+00,+1.5050644E+00
-2.0228125E+00,+1.5050644E+00
-2.0225000E+00,+1.5050644E+00
-2.0221875E+00,+1.5050644E+00
-2.0218750E+00,+1.5038081E+00
-2.0215625E+00,+1.5050644E+00
-2.0212500E+00,+1.5050644E+00
-2.0209375E+00,+1.5050644E+00
-2.0206250E+00,+1.5050644E+00
-2.0203125E+00,+1.5050644E+00
-2.0200000E+00,+1.5050644E+00
-2.0196875E+00,+1.5050644E+00
-2.0193750E+00,+1.5038081E+00
-2.0190625E+00,+1.5050644E+00
-2.0187500E+00,+1.5050644E+00
-2.0184375E+00,+1.5050644E+00
-2.0181250E+00,+1.5050644E+00
-2.0178125E+00,+1.5050644E+00
-2.0175000E+00,+1.5038081E+00
-2.0171875E+00,+1.5050644E+00
-2.0168750E+00,+1.5050644E+00
-2.0165625E+00,+1.5038081E+00
-2.0162500E+00,+1.5038081E+00
-2.0159375E+00,+1.5038081E+00
-2.0156250E+00,+1.5038081E+00
-2.0153125E+00,+1.5038081E+00
-2.0150000E+00,+1.5038081E+00
-2.0146875E+00,+1.5038081E+00
-2.0143750E+00,+1.5050644E+00
-2.0140625E+00,+1.5038081E+00
-2.0137500E+00,+1.5038081E+00
-2.0134375E+00,+1.5038081E+00
-2.0131250E+00,+1.5038081E+00
-2.0128125E+00,+1.5050644E+00
-2.0125000E+00,+1.5050644E+00
-2.0121875E+00,+1.5050644E+00
-2.0118750E+00,+1.5050644E+00
-2.0115625E+00,+1.5038081E+00
-2.0112500E+00,+1.5038081E+00
-2.0109375E+00,+1.5050644E+00
-2.0106250E+00,+1.5038081E+00
-2.0103125E+00,+1.5038081E+00
-2.0100000E+00,+1.5038081E+00
-2.0096875E+00,+1.5038081E+00
-2.0093750E+00,+1.5038081E+00
-2.0090625E+00,+1.5038081E+00
-2.0087500E+00,+1.5050644E+00
-2.0084375E+00,+1.5050644E+00
-2.0081250E+00,+1.5050644E+00
-2.0078125E+00,+1.5050644E+00
-2.0075000E+00,+1.5050644E+00
-2.0071875E+00,+1.5050644E+00
-2.0068750E+00,+1.5050644E+00
-2.0065625E+00,+1.5038081E+00
-2.0062500E+00,+1.5050644E+00
-2.0059375E+00,+1.5050644E+00
-2.0056250E+00,+1.5050644E+00
-2.0053125E+00,+1.5050644E+00
-2.0050000E+00,+1.5050644E+00
-2.0046875E+00,+1.5050644E+00
-2.0043750E+00,+1.5038081E+00
-2.0040625E+00,+1.5050644E+00
-2.0037500E+00,+1.5050644E+00
-2.0034375E+00,+1.5050644E+00
-2.0031250E+00,+1.5050644E+00
-2.0028125E+00,+1.5050644E+00
-2.0025000E+00,+1.5050644E+00
-2.0021875E+00,+1.5063207E+00
-2.0018750E+00,+1.5050644E+00
-2.0015625E+00,+1.5050644E+00
-2.0012500E+00,+1.5050644E+00
-2.0009375E+00,+1.5050644E+00
-2.0006250E+00,+1.5038081E+00
-2.0003125E+00,+1.5050644E+00
-2.0000000E+00,+1.5038081E+00
-1.9996875E+00,+1.5050644E+00
-1.9993750E+00,+1.5050644E+00
-1.9990625E+00,+1.5050644E+00
-1.9987500E+00,+1.5050644E+00
-1.9984375E+00,+1.5050644E+00
-1.9981250E+00,+1.5050644E+00
-1.9978125E+00,+1.5050644E+00
-1.9975000E+00,+1.5050644E+00
-1.9971875E+00,+1.5050644E+00
-1.9968750E+00,+1.5050644E+00
-1.9965625E+00,+1.5050644E+00
-1.9962500E+00,+1.5050644E+00
-1.9959375E+00,+1.5050644E+00
-1.9956250E+00,+1.5050644E+00
-1.9953125E+00,+1.5050644E+00
-1.9950000E+00,+1.5050644E+00
-1.9946875E+00,+1.5050644E+00
-1.9943750E+00,+1.5050644E+00
-1.9940625E+00,+1.5050644E+00
-1.9937500E+00,+1.5050644E+00
-1.9934375E+00,+1.5050644E+00
-1.9931250E+00,+1.5050644E+00
-1.9928125E+00,+1.5050644E+00
-1.9925000E+00,+1.5050644E+00
-1.9921875E+00,+1.5050644E+00
-1.9918750E+00,+1.5063207E+00
-1.9915625E+00,+1.5050644E+00
-1.9912500E+00,+1.5063207E+00
-1.9909375E+00,+1.5050644E+00
-1.9906250E+00,+1.5050644E+00
-1.9903125E+00,+1.5050644E+00
-1.9900000E+00,+1.5050644E+00
-1.9896875E+00,+1.5050644E+00
-1.9893750E+00,+1.5050644E+00
-1.9890625E+00,+1.5050644E+00
-1.9887500E+00,+1.5050644E+00
-1.9884375E+00,+1.5050644E+00
-1.9881250E+00,+1.5050644E+00
-1.9878125E+00,+1.5050644E+00
-1.9875000E+00,+1.5050644E+00
-1.9871875E+00,+1.5050644E+00
-1.9868750E+00,+1.5050644E+00
-1.9865625E+00,+1.5038081E+00
-1.9862500E+00,+1.5050644E+00
-1.9859375E+00,+1.5050644E+00
-1.9856250E+00,+1.5050644E+00
-1.9853125E+00,+1.5050644E+00
-1.9850000E+00,+1.5050644E+00
-1.9846875E+00,+1.5050644E+00
-1.9843750E+00,+1.5050644E+00
-1.9840625E+00,+1.5050644E+00
-1.9837500E+00,+1.5050644E+00
-1.9834375E+00,+1.5050644E+00
-1.9831250E+00,+1.5050644E+00
-1.9828125E+00,+1.5050644E+00
-1.9825000E+00,+1.5050644E+00
-1.9821875E+00,+1.5050644E+00
-1.9818750E+00,+1.5050644E+00
-1.9815625E+00,+1.5050644E+00
-1.9812500E+00,+1.5050644E+00
-1.9809375E+00,+1.5050644E+00
-1.9806250E+00,+1.5050644E+00
-1.9803125E+00,+1.5050644E+00
-1.9800000E+00,+1.5038081E+00
-1.9796875E+00,+1.5038081E+00
-1.9793750E+00,+1.5050644E+00
-1.9790625E+00,+1.5050644E+00
-1.9787500E+00,+1.5050644E+00
-1.9784375E+00,+1.5050644E+00
-1.9781250E+00,+1.5050644E+00
-1.9778125E+00,+1.5050644E+00
-1.9775000E+00,+1.5050644E+00
-1.9771875E+00,+1.5038081E+00
-1.9768750E+00,+1.5050644E+00
-1.9765625E+00,+1.5050644E+00
-1.9762500E+00,+1.5050644E+00
-1.9759375E+00,+1.5050644E+00
-1.9756250E+00,+1.5050644E+00
-1.9753125E+00,+1.5050644E+00
-1.9750000E+00,+1.5038081E+00
-1.9746875E+00,+1.5050644E+00
-1.9743750E+00,+1.5050644E+00
-1.9740625E+00,+1.5050644E+00
-1.9737500E+00,+1.5050644E+00
-1.9734375E+00,+1.5038081E+00
-1.9731250E+00,+1.5038081E+00
-1.9728125E+00,+1.5050644E+00
-1.9725000E+00,+1.5050644E+00
-1.9721875E+00,+1.5038081E+00
-1.9718750E+00,+1.5050644E+00
-1.9715625E+00,+1.5038081E+00
-1.9712500E+00,+1.5050644E+00
-1.9709375E+00,+1.5050644E+00
-1.9706250E+00,+1.5063207E+00
-1.9703125E+00,+1.5050644E+00
-1.9700000E+00,+1.5050644E+00
-1.9696875E+00,+1.5050644E+00
-1.9693750E+00,+1.5050644E+00
-1.9690625E+00,+1.5050644E+00
-1.9687500E+00,+1.5050644E+00
-1.9684375E+00,+1.5050644E+00
-1.9681250E+00,+1.5050644E+00
-1.9678125E+00,+1.5050644E+00
-1.9675000E+00,+1.5050644E+00
-1.9671875E+00,+1.5050644E+00
-1.9668750E+00,+1.5050644E+00
-1.9665625E+00,+1.5038081E+00
-1.9662500E+00,+1.5038081E+00
-1.9659375E+00,+1.5038081E+00
-1.9656250E+00,+1.5038081E+00
-1.9653125E+00,+1.5038081E+00
-1.9650000E+00,+1.5038081E+00
-1.9646875E+00,+1.5038081E+00
-1.9643750E+00,+1.5038081E+00
-1.9640625E+00,+1.5038081E+00
-1.9637500E+00,+1.5038081E+00
-1.9634375E+00,+1.5038081E+00
-1.9631250E+00,+1.5038081E+00
-1.9628125E+00,+1.5038081E+00
-1.9625000E+00,+1.5050644E+00
-1.9621875E+00,+1.5038081E+00
-1.9618750E+00,+1.5050644E+00
-1.9615625E+00,+1.5050644E+00
-1.9612500E+00,+1.5038081E+00
-1.9609375E+00,+1.5038081E+00
-1.9606250E+00,+1.5038081E+00
-1.9603125E+00,+1.5038081E+00
-1.9600000E+00,+1.5050644E+00
-1.9596875E+00,+1.5050644E+00
-1.9593750E+00,+1.5050644E+00
-1.9590625E+00,+1.5038081E+00
-1.9587500E+00,+1.5038081E+00
-1.9584375E+00,+1.5038081E+00
-1.9581250E+00,+1.5050644E+00
-1.9578125E+00,+1.5038081E+00
-1.9575000E+00,+1.5038081E+00
-1.9571875E+00,+1.5050644E+00
-1.9568750E+00,+1.5050644E+00
-1.9565625E+00,+1.5038081E+00
-1.9562500E+00,+1.5050644E+00
-1.9559375E+00,+1.5050644E+00
-1.9556250E+00,+1.5050644E+00
-1.9553125E+00,+1.5050644E+00
-1.9550000E+00,+1.5050644E+00
-1.9546875E+00,+1.5038081E+00
-1.9543750E+00,+1.5050644E+00
-1.9540625E+00,+1.5050644E+00
-1.9537500E+00,+1.5050644E+00
-1.9534375E+00,+1.5050644E+00
-1.9531250E+00,+1.5050644E+00
-1.9528125E+00,+1.5050644E+00
-1.9525000E+00,+1.5038081E+00
-1.9521875E+00,+1.5038081E+00
-1.9518750E+00,+1.5050644E+00
-1.9515625E+00,+1.5050644E+00
-1.9512500E+00,+1.5050644E+00
-1.9509375E+00,+1.5050644E+00
-1.9506250E+00,+1.5050644E+00
-1.9503125E+00,+1.5038081E+00
-1.9500000E+00,+1.5038081E+00
-1.9496875E+00,+1.5050644E+00
-1.9493750E+00,+1.5050644E+00
-1.9490625E+00,+1.5050644E+00
-1.9487500E+00,+1.5050644E+00
-1.9484375E+00,+1.5050644E+00
-1.9481250E+00,+1.5050644E+00
-1.9478125E+00,+1.5050644E+00
-1.9475000E+00,+1.5050644E+00
-1.9471875E+00,+1.5050644E+00
-1.9468750E+00,+1.5050644E+00
-1.9465625E+00,+1.5050644E+00
-1.9462500E+00,+1.5038081E+00
-1.9459375E+00,+1.5038081E+00
-1.9456250E+00,+1.5050644E+00
-1.9453125E+00,+1.5050644E+00
-1.9450000E+00,+1.5050644E+00
-1.9446875E+00,+1.5050644E+00
-1.9443750E+00,+1.5038081E+00
-1.9440625E+00,+1.5038081E+00
-1.9437500E+00,+1.5038081E+00
-1.9434375E+00,+1.5038081E+00
-1.9431250E+00,+1.5050644E+00
-1.9428125E+00,+1.5050644E+00
-1.9425000E+00,+1.5050644E+00
-1.9421875E+00,+1.5050644E+00
-1.9418750E+00,+1.5050644E+00
-1.9415625E+00,+1.5050644E+00
-1.9412500E+00,+1.5050644E+00
-1.9409375E+00,+1.5050644E+00
-1.9406250E+00,+1.5050644E+00
-1.9403125E+00,+1.5050644E+00
-1.9400000E+00,+1.5050644E+00
-1.9396875E+00,+1.5038081E+00
-1.9393750E+00,+1.5038081E+00
-1.9390625E+00,+1.5050644E+00
-1.9387500E+00,+1.5050644E+00
-1.9384375E+00,+1.5050644E+00
-1.9381250E+00,+1.5050644E+00
-1.9378125E+00,+1.5050644E+00
-1.9375000E+00,+1.5050644E+00
-1.9371875E+00,+1.5050644E+00
-1.9368750E+00,+1.5050644E+00
-1.9365625E+00,+1.5050644E+00
-1.9362500E+00,+1.5050644E+00
-1.9359375E+00,+1.5050644E+00
-1.9356250E+00,+1.5038081E+00
-1.9353125E+00,+1.5050644E+00
-1.9350000E+00,+1.5050644E+00
-1.9346875E+00,+1.5050644E+00
-1.9343750E+00,+1.5050644E+00
-1.9340625E+00,+1.5050644E+00
-1.9337500E+00,+1.5050644E+00
-1.9334375E+00,+1.5050644E+00
-1.9331250E+00,+1.5050644E+00
-1.9328125E+00,+1.5050644E+00
-1.9325000E+00,+1.5050644E+00
-1.9321875E+00,+1.5038081E+00
-1.9318750E+00,+1.5050644E+00
-1.9315625E+00,+1.5050644E+00
-1.9312500E+00,+1.5050644E+00
-1.9309375E+00,+1.5050644E+00
-1.9306250E+00,+1.5038081E+00
-1.9303125E+00,+1.5050644E+00
-1.9300000E+00,+1.5050644E+00
-1.9296875E+00,+1.5050644E+00
-1.9293750E+00,+1.5038081E+00
-1.9290625E+00,+1.5038081E+00
-1.9287500E+00,+1.5038081E+00
-1.9284375E+00,+1.5050644E+00
-1.9281250E+00,+1.5050644E+00
-1.9278125E+00,+1.5050644E+00
-1.9275000E+00,+1.5038081E+00
-1.9271875E+00,+1.5050644E+00
-1.9268750E+00,+1.5038081E+00
-1.9265625E+00,+1.5050644E+00
-1.9262500E+00,+1.5038081E+00
-1.9259375E+00,+1.5050644E+00
-1.9256250E+00,+1.5050644E+00
-1.9253125E+00,+1.5038081E+00
-1.9250000E+00,+1.5038081E+00
-1.9246875E+00,+1.5050644E+00
-1.9243750E+00,+1.5050644E+00
-1.9240625E+00,+1.5038081E+00
-1.9237500E+00,+1.5038081E+00
-1.9234375E+00,+1.5038081E+00
-1.9231250E+00,+1.5050644E+00
-1.9228125E+00,+1.5038081E+00
-1.9225000E+00,+1.5038081E+00
-1.9221875E+00,+1.5050644E+00
-1.9218750E+00,+1.5050644E+00
-1.9215625E+00,+1.5038081E+00
-1.9212500E+00,+1.5038081E+00
-1.9209375E+00,+1.5050644E+00
-1.9206250E+00,+1.5050644E+00
-1.9203125E+00,+1.5050644E+00
-1.9200000E+00,+1.5050644E+00
-1.9196875E+00,+1.5050644E+00
-1.9193750E+00,+1.5050644E+00
-1.9190625E+00,+1.5038081E+00
-1.9187500E+00,+1.5038081E+00
-1.9184375E+00,+1.5038081E+00
-1.9181250E+00,+1.5050644E+00
-1.9178125E+00,+1.5038081E+00
-1.9175000E+00,+1.5038081E+00
-1.9171875E+00,+1.5050644E+00
-1.9168750E+00,+1.5050644E+00
-1.9165625E+00,+1.5050644E+00
-1.9162500E+00,+1.5038081E+00
-1.9159375E+00,+1.5050644E+00
-1.9156250E+00,+1.5050644E+00
-1.9153125E+00,+1.5050644E+00
-1.9150000E+00,+1.5050644E+00
-1.9146875E+00,+1.5050644E+00
-1.9143750E+00,+1.5038081E+00
-1.9140625E+00,+1.5050644E+00
-1.9137500E+00,+1.5050644E+00
-1.9134375E+00,+1.5038081E+00
-1.9131250E+00,+1.5050644E+00
-1.9128125E+00,+1.5050644E+00
-1.9125000E+00,+1.5038081E+00
-1.9121875E+00,+1.5038081E+00
-1.9118750E+00,+1.5038081E+00
-1.9115625E+00,+1.5050644E+00
-1.9112500E+00,+1.5050644E+00
-1.9109375E+00,+1.5050644E+00
-1.9106250E+00,+1.5063207E+00
-1.9103125E+00,+1.5050644E+00
-1.9100000E+00,+1.5050644E+00
-1.9096875E+00,+1.5063207E+00
-1.9093750E+00,+1.5063207E+00
-1.9090625E+00,+1.5063207E+00
-1.9087500E+00,+1.5063207E+00
-1.9084375E+00,+1.5050644E+00
-1.9081250E+00,+1.5050644E+00
-1.9078125E+00,+1.5063207E+00
-1.9075000E+00,+1.5063207E+00
-1.9071875E+00,+1.5050644E+00
-1.9068750E+00,+1.5050644E+00
-1.9065625E+00,+1.5050644E+00
-1.9062500E+00,+1.5050644E+00
-1.9059375E+00,+1.5050644E+00
-1.9056250E+00,+1.5050644E+00
-1.9053125E+00,+1.5050644E+00
-1.9050000E+00,+1.5050644E+00
-1.9046875E+00,+1.5050644E+00
-1.9043750E+00,+1.5050644E+00
-1.9040625E+00,+1.5050644E+00
-1.9037500E+00,+1.5050644E+00
-1.9034375E+00,+1.5050644E+00
-1.9031250E+00,+1.5050644E+00
-1.9028125E+00,+1.5050644E+00
-1.9025000E+00,+1.5050644E+00
-1.9021875E+00,+1.5050644E+00
-1.9018750E+00,+1.5050644E+00
-1.9015625E+00,+1.5050644E+00
-1.9012500E+00,+1.5050644E+00
-1.9009375E+00,+1.5050644E+00
-1.9006250E+00,+1.5038081E+00
-1.9003125E+00,+1.5038081E+00
-1.9000000E+00,+1.5050644E+00
-1.8996875E+00,+1.5050644E+00
-1.8993750E+00,+1.5050644E+00
-1.8990625E+00,+1.5050644E+00
-1.8987500E+00,+1.5038081E+00
-1.8984375E+00,+1.5050644E+00
-1.8981250E+00,+1.5050644E+00
-1.8978125E+00,+1.5050644E+00
-1.8975000E+00,+1.5038081E+00
-1.8971875E+00,+1.5050644E+00
-1.8968750E+00,+1.5063207E+00
-1.8965625E+00,+1.5050644E+00
-1.8962500E+00,+1.5050644E+00
-1.8959375E+00,+1.5050644E+00
-1.8956250E+00,+1.5050644E+00
-1.8953125E+00,+1.5038081E+00
-1.8950000E+00,+1.5050644E+00
-1.8946875E+00,+1.5050644E+00
-1.8943750E+00,+1.5050644E+00
-1.8940625E+00,+1.5050644E+00
-1.8937500E+00,+1.5038081E+00
-1.8934375E+00,+1.5038081E+00
-1.8931250E+00,+1.5050644E+00
-1.8928125E+00,+1.5050644E+00
-1.8925000E+00,+1.5050644E+00
-1.8921875E+00,+1.5050644E+00
-1.8918750E+00,+1.5050644E+00
-1.8915625E+00,+1.5050644E+00
-1.8912500E+00,+1.5050644E+00
-1.8909375E+00,+1.5050644E+00
-1.8906250E+00,+1.5050644E+00
-1.8903125E+00,+1.5050644E+00
-1.8900000E+00,+1.5050644E+00
-1.8896875E+00,+1.5038081E+00
-1.8893750E+00,+1.5050644E+00
-1.8890625E+00,+1.5038081E+00
-1.8887500E+00,+1.5050644E+00
-1.8884375E+00,+1.5050644E+00
-1.8881250E+00,+1.5050644E+00
-1.8878125E+00,+1.5050644E+00
-1.8875000E+00,+1.5050644E+00
-1.8871875E+00,+1.5050644E+00
-1.8868750E+00,+1.5050644E+00
-1.8865625E+00,+1.5050644E+00
-1.8862500E+00,+1.5050644E+00
-1.8859375E+00,+1.5050644E+00
-1.8856250E+00,+1.5050644E+00
-1.8853125E+00,+1.5050644E+00
-1.8850000E+00,+1.5050644E+00
-1.8846875E+00,+1.5050644E+00
-1.8843750E+00,+1.5050644E+00
-1.8840625E+00,+1.5050644E+00
-1.8837500E+00,+1.5050644E+00
-1.8834375E+00,+1.5038081E+00
-1.8831250E+00,+1.5050644E+00
-1.8828125E+00,+1.5050644E+00
-1.8825000E+00,+1.5050644E+00
-1.8821875E+00,+1.5050644E+00
-1.8818750E+00,+1.5050644E+00
-1.8815625E+00,+1.5075769E+00
-1.8812500E+00,+1.5088332E+00
-1.8809375E+00,+1.5075769E+00
-1.8806250E+00,+1.5088332E+00
-1.8803125E+00,+1.5088332E+00
-1.8800000E+00,+1.5088332E+00
-1.8796875E+00,+1.5088332E+00
-1.8793750E+00,+1.5088332E+00
-1.8790625E+00,+1.5088332E+00
-1.8787500E+00,+1.5088332E+00
-1.8784375E+00,+1.5088332E+00
-1.8781250E+00,+1.5088332E+00
-1.8778125E+00,+1.5088332E+00
-1.8775000E+00,+1.5088332E+00
-1.8771875E+00,+1.5088332E+00
-1.8768750E+00,+1.5088332E+00
-1.8765625E+00,+1.5088332E+00
-1.8762500E+00,+1.5088332E+00
-1.8759375E+00,+1.5088332E+00
-1.8756250E+00,+1.5088332E+00
-1.8753125E+00,+1.5088332E+00
-1.8750000E+00,+1.5088332E+00
-1.8746875E+00,+1.5088332E+00
-1.8743750E+00,+1.5088332E+00
-1.8740625E+00,+1.5088332E+00
-1.8737500E+00,+1.5088332E+00
-1.8734375E+00,+1.5088332E+00
-1.8731250E+00,+1.5088332E+00
-1.8728125E+00,+1.5088332E+00
-1.8725000E+00,+1.5088332E+00
-1.8721875E+00,+1.5088332E+00
-1.8718750E+00,+1.5088332E+00
-1.8715625E+00,+1.5075769E+00
-1.8712500E+00,+1.5075769E+00
-1.8709375E+00,+1.5075769E+00
-1.8706250E+00,+1.5088332E+00
-1.8703125E+00,+1.5075769E+00
-1.8700000E+00,+1.5075769E+00
-1.8696875E+00,+1.5088332E+00
-1.8693750E+00,+1.5088332E+00
-1.8690625E+00,+1.5088332E+00
-1.8687500E+00,+1.5088332E+00
-1.8684375E+00,+1.5088332E+00
-1.8681250E+00,+1.5088332E+00
-1.8678125E+00,+1.5088332E+00
-1.8675000E+00,+1.5100895E+00
-1.8671875E+00,+1.5088332E+00
-1.8668750E+00,+1.5088332E+00
-1.8665625E+00,+1.5100895E+00
-1.8662500E+00,+1.5100895E+00
-1.8659375E+00,+1.5100895E+00
-1.8656250E+00,+1.5100895E+00
-1.8653125E+00,+1.5100895E+00
-1.8650000E+00,+1.5113458E+00
-1.8646875E+00,+1.5113458E+00
-1.8643750E+00,+1.5100895E+00
-1.8640625E+00,+1.5113458E+00
-1.8637500E+00,+1.5113458E+00
-1.8634375E+00,+1.5113458E+00
-1.8631250E+00,+1.5113458E+00
-1.8628125E+00,+1.5113458E+00
-1.8625000E+00,+1.5113458E+00
-1.8621875E+00,+1.5113458E+00
-1.8618750E+00,+1.5126021E+00
-1.8615625E+00,+1.5113458E+00
-1.8612500E+00,+1.5126021E+00
-1.8609375E+00,+1.5126021E+00
-1.8606250E+00,+1.5126021E+00
-1.8603125E+00,+1.5126021E+00
-1.8600000E+00,+1.5138584E+00
-1.8596875E+00,+1.5126021E+00
-1.8593750E+00,+1.5138584E+00
-1.8590625E+00,+1.5126021E+00
-1.8587500E+00,+1.5138584E+00
-1.8584375E+00,+1.5126021E+00
-1.8581250E+00,+1.5138584E+00
-1.8578125E+00,+1.5126021E+00
-1.8575000E+00,+1.5138584E+00
-1.8571875E+00,+1.5138584E+00
-1.8568750E+00,+1.5138584E+00
-1.8565625E+00,+1.5138584E+00
-1.8562500E+00,+1.5138584E+00
-1.8559375E+00,+1.5138584E+00
-1.8556250E+00,+1.5138584E+00
-1.8553125E+00,+1.5151146E+00
-1.8550000E+00,+1.5138584E+00
-1.8546875E+00,+1.5151146E+00
-1.8543750E+00,+1.5151146E+00
-1.8540625E+00,+1.5151146E+00
-1.8537500E+00,+1.5151146E+00
-1.8534375E+00,+1.5151146E+00
-1.8531250E+00,+1.5151146E+00
-1.8528125E+00,+1.5151146E+00
-1.8525000E+00,+1.5151146E+00
-1.8521875E+00,+1.5151146E+00
-1.8518750E+00,+1.5151146E+00
-1.8515625E+00,+1.5151146E+00
-1.8512500E+00,+1.5163709E+00
-1.8509375E+00,+1.5163709E+00
-1.8506250E+00,+1.5163709E+00
-1.8503125E+00,+1.5163709E+00
-1.8500000E+00,+1.5151146E+00
-1.8496875E+00,+1.5163709E+00
-1.8493750E+00,+1.5151146E+00
-1.8490625E+00,+1.5163709E+00
-1.8487500E+00,+1.5163709E+00
-1.8484375E+00,+1.5163709E+00
-1.8481250E+00,+1.5163709E+00
-1.8478125E+00,+1.5163709E+00
-1.8475000E+00,+1.5163709E+00
-1.8471875E+00,+1.5163709E+00
-1.8468750E+00,+1.5163709E+00
-1.8465625E+00,+1.5163709E+00
-1.8462500E+00,+1.5176272E+00
-1.8459375E+00,+1.5163709E+00
-1.8456250E+00,+1.5176272E+00
-1.8453125E+00,+1.5176272E+00
-1.8450000E+00,+1.5176272E+00
-1.8446875E+00,+1.5176272E+00
-1.8443750E+00,+1.5176272E+00
-1.8440625E+00,+1.5176272E+00
-1.8437500E+00,+1.5176272E+00
-1.8434375E+00,+1.5176272E+00
-1.8431250E+00,+1.5176272E+00
-1.8428125E+00,+1.5188835E+00
-1.8425000E+00,+1.5188835E+00
-1.8421875E+00,+1.5188835E+00
-1.8418750E+00,+1.5188835E+00
-1.8415625E+00,+1.5201398E+00
-1.8412500E+00,+1.5201398E+00
-1.8409375E+00,+1.5201398E+00
-1.8406250E+00,+1.5213960E+00
-1.8403125E+00,+1.5213960E+00
-1.8400000E+00,+1.5213960E+00
-1.8396875E+00,+1.5226523E+00
-1.8393750E+00,+1.5226523E+00
-1.8390625E+00,+1.5239086E+00
-1.8387500E+00,+1.5239086E+00
-1.8384375E+00,+1.5251649E+00
-1.8381250E+00,+1.5264212E+00
-1.8378125E+00,+1.5264212E+00
-1.8375000E+00,+1.5289337E+00
-1.8371875E+00,+1.5289337E+00
-1.8368750E+00,+1.5301900E+00
-1.8365625E+00,+1.5314463E+00
-1.8362500E+00,+1.5339589E+00
-1.8359375E+00,+1.5339589E+00
-1.8356250E+00,+1.5352151E+00
-1.8353125E+00,+1.5364714E+00
-1.8350000E+00,+1.5377277E+00
-1.8346875E+00,+1.5389840E+00
-1.8343750E+00,+1.5402403E+00
-1.8340625E+00,+1.5427528E+00
-1.8337500E+00,+1.5427528E+00
-1.8334375E+00,+1.5452654E+00
-1.8331250E+00,+1.5465217E+00
-1.8328125E+00,+1.5490342E+00
-1.8325000E+00,+1.5502905E+00
-1.8321875E+00,+1.5528031E+00
-1.8318750E+00,+1.5540594E+00
-1.8315625E+00,+1.5565719E+00
-1.8312500E+00,+1.5578282E+00
-1.8309375E+00,+1.5590845E+00
-1.8306250E+00,+1.5603408E+00
-1.8303125E+00,+1.5628533E+00
-1.8300000E+00,+1.5641096E+00
-1.8296875E+00,+1.5666222E+00
-1.8293750E+00,+1.5691347E+00
-1.8290625E+00,+1.5716473E+00
-1.8287500E+00,+1.5741599E+00
-1.8284375E+00,+1.5766724E+00
-1.8281250E+00,+1.5779287E+00
-1.8278125E+00,+1.5804413E+00
-1.8275000E+00,+1.5829538E+00
-1.8271875E+00,+1.5854664E+00
-1.8268750E+00,+1.5879790E+00
-1.8265625E+00,+1.5892352E+00
-1.8262500E+00,+1.5930041E+00
-1.8259375E+00,+1.5955166E+00
-1.8256250E+00,+1.5980292E+00
-1.8253125E+00,+1.6017981E+00
-1.8250000E+00,+1.6043106E+00
-1.8246875E+00,+1.6068232E+00
-1.8243750E+00,+1.6105920E+00
-1.8240625E+00,+1.6143609E+00
-1.8237500E+00,+1.6168734E+00
-1.8234375E+00,+1.6193860E+00
-1.8231250E+00,+1.6218986E+00
-1.8228125E+00,+1.6244111E+00
-1.8225000E+00,+1.6281800E+00
-1.8221875E+00,+1.6319488E+00
-1.8218750E+00,+1.6357176E+00
-1.8215625E+00,+1.6382302E+00
-1.8212500E+00,+1.6419991E+00
-1.8209375E+00,+1.6457679E+00
-1.8206250E+00,+1.6495367E+00
-1.8203125E+00,+1.6533056E+00
-1.8200000E+00,+1.6558182E+00
-1.8196875E+00,+1.6595870E+00
-1.8193750E+00,+1.6620996E+00
-1.8190625E+00,+1.6658684E+00
-1.8187500E+00,+1.6683810E+00
-1.8184375E+00,+1.6721498E+00
-1.8181250E+00,+1.6759187E+00
-1.8178125E+00,+1.6796875E+00
-1.8175000E+00,+1.6822001E+00
-1.8171875E+00,+1.6859689E+00
-1.8168750E+00,+1.6884815E+00
-1.8165625E+00,+1.6935066E+00
-1.8162500E+00,+1.6960192E+00
-1.8159375E+00,+1.6997880E+00
-1.8156250E+00,+1.7023006E+00
-1.8153125E+00,+1.7060694E+00
-1.8150000E+00,+1.7110945E+00
-1.8146875E+00,+1.7136071E+00
-1.8143750E+00,+1.7173759E+00
-1.8140625E+00,+1.7198885E+00
-1.8137500E+00,+1.7224011E+00
-1.8134375E+00,+1.7261699E+00
-1.8131250E+00,+1.7299388E+00
-1.8128125E+00,+1.7349639E+00
-1.8125000E+00,+1.7374764E+00
-1.8121875E+00,+1.7399890E+00
-1.8118750E+00,+1.7425016E+00
-1.8115625E+00,+1.7462704E+00
-1.8112500E+00,+1.7500393E+00
-1.8109375E+00,+1.7538081E+00
-1.8106250E+00,+1.7575769E+00
-1.8103125E+00,+1.7600895E+00
-1.8100000E+00,+1.7638584E+00
-1.8096875E+00,+1.7676272E+00
-1.8093750E+00,+1.7701398E+00
-1.8090625E+00,+1.7751649E+00
-1.8087500E+00,+1.7776774E+00
-1.8084375E+00,+1.7801900E+00
-1.8081250E+00,+1.7839589E+00
-1.8078125E+00,+1.7864714E+00
-1.8075000E+00,+1.7902403E+00
-1.8071875E+00,+1.7952654E+00
-1.8068750E+00,+1.7977779E+00
-1.8065625E+00,+1.8002905E+00
-1.8062500E+00,+1.8040594E+00
-1.8059375E+00,+1.8065719E+00
-1.8056250E+00,+1.8103408E+00
-1.8053125E+00,+1.8141096E+00
-1.8050000E+00,+1.8178785E+00
-1.8046875E+00,+1.8216473E+00
-1.8043750E+00,+1.8241599E+00
-1.8040625E+00,+1.8279287E+00
-1.8037500E+00,+1.8316975E+00
-1.8034375E+00,+1.8354664E+00
-1.8031250E+00,+1.8392352E+00
-1.8028125E+00,+1.8430041E+00
-1.8025000E+00,+1.8455166E+00
-1.8021875E+00,+1.8492855E+00
-1.8018750E+00,+1.8530543E+00
-1.8015625E+00,+1.8555669E+00
-1.8012500E+00,+1.8593357E+00
-1.8009375E+00,+1.8631046E+00
-1.8006250E+00,+1.8656171E+00
-1.8003125E+00,+1.8681297E+00
-1.8000000E+00,+1.8718986E+00
-1.7996875E+00,+1.8756674E+00
-1.7993750E+00,+1.8794362E+00
-1.7990625E+00,+1.8819488E+00
-1.7987500E+00,+1.8857176E+00
-1.7984375E+00,+1.8894865E+00
-1.7981250E+00,+1.8932553E+00
-1.7978125E+00,+1.8957679E+00
-1.7975000E+00,+1.8995367E+00
-1.7971875E+00,+1.9020493E+00
-1.7968750E+00,+1.9058181E+00
-1.7965625E+00,+1.9083307E+00
-1.7962500E+00,+1.9120996E+00
-1.7959375E+00,+1.9158684E+00
-1.7956250E+00,+1.9196372E+00
-1.7953125E+00,+1.9221498E+00
-1.7950000E+00,+1.9259187E+00
-1.7946875E+00,+1.9309438E+00
-1.7943750E+00,+1.9347126E+00
-1.7940625E+00,+1.9372252E+00
-1.7937500E+00,+1.9397377E+00
-1.7934375E+00,+1.9435066E+00
-1.7931250E+00,+1.9472754E+00
-1.7928125E+00,+1.9510443E+00
-1.7925000E+00,+1.9535568E+00
-1.7921875E+00,+1.9573257E+00
-1.7918750E+00,+1.9610945E+00
-1.7915625E+00,+1.9636071E+00
-1.7912500E+00,+1.9673759E+00
-1.7909375E+00,+1.9711448E+00
-1.7906250E+00,+1.9749136E+00
-1.7903125E+00,+1.9774262E+00
-1.7900000E+00,+1.9811950E+00
-1.7896875E+00,+1.9849639E+00
-1.7893750E+00,+1.9874764E+00
-1.7890625E+00,+1.9912453E+00
-1.7887500E+00,+1.9950141E+00
-1.7884375E+00,+2.0000393E+00
-1.7881250E+00,+2.0012955E+00
-1.7878125E+00,+2.0050644E+00
-1.7875000E+00,+2.0075769E+00
-1.7871875E+00,+2.0126021E+00
-1.7868750E+00,+2.0151146E+00
-1.7865625E+00,+2.0188835E+00
-1.7862500E+00,+2.0226523E+00
-1.7859375E+00,+2.0264212E+00
-1.7856250E+00,+2.0289337E+00
-1.7853125E+00,+2.0327026E+00
-1.7850000E+00,+2.0364714E+00
-1.7846875E+00,+2.0402403E+00
-1.7843750E+00,+2.0427528E+00
-1.7840625E+00,+2.0452654E+00
-1.7837500E+00,+2.0477779E+00
-1.7834375E+00,+2.0515468E+00
-1.7831250E+00,+2.0540594E+00
-1.7828125E+00,+2.0565719E+00
-1.7825000E+00,+2.0590845E+00
-1.7821875E+00,+2.0615970E+00
-1.7818750E+00,+2.0641096E+00
-1.7815625E+00,+2.0666222E+00
-1.7812500E+00,+2.0678784E+00
-1.7809375E+00,+2.0703910E+00
-1.7806250E+00,+2.0729036E+00
-1.7803125E+00,+2.0754161E+00
-1.7800000E+00,+2.0766724E+00
-1.7796875E+00,+2.0791850E+00
-1.7793750E+00,+2.0804413E+00
-1.7790625E+00,+2.0816975E+00
-1.7787500E+00,+2.0829538E+00
-1.7784375E+00,+2.0842101E+00
-1.7781250E+00,+2.0842101E+00
-1.7778125E+00,+2.0854664E+00
-1.7775000E+00,+2.0867227E+00
-1.7771875E+00,+2.0879790E+00
-1.7768750E+00,+2.0879790E+00
-1.7765625E+00,+2.0892352E+00
-1.7762500E+00,+2.0892352E+00
-1.7759375E+00,+2.0904915E+00
-1.7756250E+00,+2.0917478E+00
-1.7753125E+00,+2.0917478E+00
-1.7750000E+00,+2.0917478E+00
-1.7746875E+00,+2.0917478E+00
-1.7743750E+00,+2.0930041E+00
-1.7740625E+00,+2.0917478E+00
-1.7737500E+00,+2.0917478E+00
-1.7734375E+00,+2.0917478E+00
-1.7731250E+00,+2.0904915E+00
-1.7728125E+00,+2.0904915E+00
-1.7725000E+00,+2.0904915E+00
-1.7721875E+00,+2.0892352E+00
-1.7718750E+00,+2.0879790E+00
-1.7715625E+00,+2.0879790E+00
-1.7712500E+00,+2.0867227E+00
-1.7709375E+00,+2.0867227E+00
-1.7706250E+00,+2.0842101E+00
-1.7703125E+00,+2.0829538E+00
-1.7700000E+00,+2.0816975E+00
-1.7696875E+00,+2.0816975E+00
-1.7693750E+00,+2.0816975E+00
-1.7690625E+00,+2.0804413E+00
-1.7687500E+00,+2.0779287E+00
-1.7684375E+00,+2.0766724E+00
-1.7681250E+00,+2.0741599E+00
-1.7678125E+00,+2.0703910E+00
-1.7675000E+00,+2.0678784E+00
-1.7671875E+00,+2.0666222E+00
-1.7668750E+00,+2.0641096E+00
-1.7665625E+00,+2.0628533E+00
-1.7662500E+00,+2.0603408E+00
-1.7659375E+00,+2.0590845E+00
-1.7656250E+00,+2.0553156E+00
-1.7653125E+00,+2.0515468E+00
-1.7650000E+00,+2.0490342E+00
-1.7646875E+00,+2.0452654E+00
-1.7643750E+00,+2.0427528E+00
-1.7640625E+00,+2.0402403E+00
-1.7637500E+00,+2.0377277E+00
-1.7634375E+00,+2.0339589E+00
-1.7631250E+00,+2.0301900E+00
-1.7628125E+00,+2.0264212E+00
-1.7625000E+00,+2.0226523E+00
-1.7621875E+00,+2.0201398E+00
-1.7618750E+00,+2.0163709E+00
-1.7615625E+00,+2.0126021E+00
-1.7612500E+00,+2.0088332E+00
-1.7609375E+00,+2.0050644E+00
-1.7606250E+00,+2.0025518E+00
-1.7603125E+00,+2.0000393E+00
-1.7600000E+00,+1.9962704E+00
-1.7596875E+00,+1.9925016E+00
-1.7593750E+00,+1.9887327E+00
-1.7590625E+00,+1.9849639E+00
-1.7587500E+00,+1.9824513E+00
-1.7584375E+00,+1.9786825E+00
-1.7581250E+00,+1.9761699E+00
-1.7578125E+00,+1.9724011E+00
-1.7575000E+00,+1.9673759E+00
-1.7571875E+00,+1.9648634E+00
-1.7568750E+00,+1.9623508E+00
-1.7565625E+00,+1.9585820E+00
-1.7562500E+00,+1.9560694E+00
-1.7559375E+00,+1.9523006E+00
-1.7556250E+00,+1.9485317E+00
-1.7553125E+00,+1.9447629E+00
-1.7550000E+00,+1.9422503E+00
-1.7546875E+00,+1.9384815E+00
-1.7543750E+00,+1.9359689E+00
-1.7540625E+00,+1.9322001E+00
-1.7537500E+00,+1.9284312E+00
-1.7534375E+00,+1.9246624E+00
-1.7531250E+00,+1.9208935E+00
-1.7528125E+00,+1.9171247E+00
-1.7525000E+00,+1.9146121E+00
-1.7521875E+00,+1.9108433E+00
-1.7518750E+00,+1.9070744E+00
-1.7515625E+00,+1.9045619E+00
-1.7512500E+00,+1.9007930E+00
-1.7509375E+00,+1.8982805E+00
-1.7506250E+00,+1.8945116E+00
-1.7503125E+00,+1.8919991E+00
-1.7500000E+00,+1.8869739E+00
-1.7496875E+00,+1.8844614E+00
-1.7493750E+00,+1.8806925E+00
-1.7490625E+00,+1.8769237E+00
-1.7487500E+00,+1.8744111E+00
-1.7484375E+00,+1.8706423E+00
-1.7481250E+00,+1.8668734E+00
-1.7478125E+00,+1.8631046E+00
-1.7475000E+00,+1.8605920E+00
-1.7471875E+00,+1.8580795E+00
-1.7468750E+00,+1.8530543E+00
-1.7465625E+00,+1.8505418E+00
-1.7462500E+00,+1.8467729E+00
-1.7459375E+00,+1.8430041E+00
-1.7456250E+00,+1.8404915E+00
-1.7453125E+00,+1.8367227E+00
-1.7450000E+00,+1.8342101E+00
-1.7446875E+00,+1.8291850E+00
-1.7443750E+00,+1.8266724E+00
-1.7440625E+00,+1.8229036E+00
-1.7437500E+00,+1.8191347E+00
-1.7434375E+00,+1.8153659E+00
-1.7431250E+00,+1.8115970E+00
-1.7428125E+00,+1.8090845E+00
-1.7425000E+00,+1.8053156E+00
-1.7421875E+00,+1.8015468E+00
-1.7418750E+00,+1.7990342E+00
-1.7415625E+00,+1.7965217E+00
-1.7412500E+00,+1.7927528E+00
-1.7409375E+00,+1.7889840E+00
-1.7406250E+00,+1.7852151E+00
-1.7403125E+00,+1.7827026E+00
-1.7400000E+00,+1.7789337E+00
-1.7396875E+00,+1.7764212E+00
-1.7393750E+00,+1.7726523E+00
-1.7390625E+00,+1.7676272E+00
-1.7387500E+00,+1.7651146E+00
-1.7384375E+00,+1.7613458E+00
-1.7381250E+00,+1.7588332E+00
-1.7378125E+00,+1.7550644E+00
-1.7375000E+00,+1.7512955E+00
-1.7371875E+00,+1.7487830E+00
-1.7368750E+00,+1.7450141E+00
-1.7365625E+00,+1.7412453E+00
-1.7362500E+00,+1.7387327E+00
-1.7359375E+00,+1.7349639E+00
-1.7356250E+00,+1.7324513E+00
-1.7353125E+00,+1.7286825E+00
-1.7350000E+00,+1.7249136E+00
-1.7346875E+00,+1.7211448E+00
-1.7343750E+00,+1.7173759E+00
-1.7340625E+00,+1.7148634E+00
-1.7337500E+00,+1.7123508E+00
-1.7334375E+00,+1.7085820E+00
-1.7331250E+00,+1.7048131E+00
-1.7328125E+00,+1.7010443E+00
-1.7325000E+00,+1.6972754E+00
-1.7321875E+00,+1.6935066E+00
-1.7318750E+00,+1.6897377E+00
-1.7315625E+00,+1.6872252E+00
-1.7312500E+00,+1.6834563E+00
-1.7309375E+00,+1.6796875E+00
-1.7306250E+00,+1.6771749E+00
-1.7303125E+00,+1.6734061E+00
-1.7300000E+00,+1.6696372E+00
-1.7296875E+00,+1.6658684E+00
-1.7293750E+00,+1.6633558E+00
-1.7290625E+00,+1.6595870E+00
-1.7287500E+00,+1.6570744E+00
-1.7284375E+00,+1.6533056E+00
-1.7281250E+00,+1.6495367E+00
-1.7278125E+00,+1.6457679E+00
-1.7275000E+00,+1.6419991E+00
-1.7271875E+00,+1.6394865E+00
-1.7268750E+00,+1.6369739E+00
-1.7265625E+00,+1.6332051E+00
-1.7262500E+00,+1.6294362E+00
-1.7259375E+00,+1.6244111E+00
-1.7256250E+00,+1.6218986E+00
-1.7253125E+00,+1.6193860E+00
-1.7250000E+00,+1.6168734E+00
-1.7246875E+00,+1.6143609E+00
-1.7243750E+00,+1.6118483E+00
-1.7240625E+00,+1.6080795E+00
-1.7237500E+00,+1.6055669E+00
-1.7234375E+00,+1.6030543E+00
-1.7231250E+00,+1.6005418E+00
-1.7228125E+00,+1.5980292E+00
-1.7225000E+00,+1.5955166E+00
-1.7221875E+00,+1.5917478E+00
-1.7218750E+00,+1.5892352E+00
-1.7215625E+00,+1.5854664E+00
-1.7212500E+00,+1.5829538E+00
-1.7209375E+00,+1.5816975E+00
-1.7206250E+00,+1.5791850E+00
-1.7203125E+00,+1.5779287E+00
-1.7200000E+00,+1.5754161E+00
-1.7196875E+00,+1.5729036E+00
-1.7193750E+00,+1.5691347E+00
-1.7190625E+00,+1.5678785E+00
-1.7187500E+00,+1.5653659E+00
-1.7184375E+00,+1.5641096E+00
-1.7181250E+00,+1.5615970E+00
-1.7178125E+00,+1.5603408E+00
-1.7175000E+00,+1.5590845E+00
-1.7171875E+00,+1.5565719E+00
-1.7168750E+00,+1.5553156E+00
-1.7165625E+00,+1.5540594E+00
-1.7162500E+00,+1.5515468E+00
-1.7159375E+00,+1.5502905E+00
-1.7156250E+00,+1.5477780E+00
-1.7153125E+00,+1.5465217E+00
-1.7150000E+00,+1.5452654E+00
-1.7146875E+00,+1.5427528E+00
-1.7143750E+00,+1.5414965E+00
-1.7140625E+00,+1.5402403E+00
-1.7137500E+00,+1.5389840E+00
-1.7134375E+00,+1.5377277E+00
-1.7131250E+00,+1.5364714E+00
-1.7128125E+00,+1.5364714E+00
-1.7125000E+00,+1.5352151E+00
-1.7121875E+00,+1.5339589E+00
-1.7118750E+00,+1.5327026E+00
-1.7115625E+00,+1.5314463E+00
-1.7112500E+00,+1.5289337E+00
-1.7109375E+00,+1.5289337E+00
-1.7106250E+00,+1.5276774E+00
-1.7103125E+00,+1.5276774E+00
-1.7100000E+00,+1.5264212E+00
-1.7096875E+00,+1.5251649E+00
-1.7093750E+00,+1.5239086E+00
-1.7090625E+00,+1.5239086E+00
-1.7087500E+00,+1.5239086E+00
-1.7084375E+00,+1.5226523E+00
-1.7081250E+00,+1.5226523E+00
-1.7078125E+00,+1.5226523E+00
-1.7075000E+00,+1.5213960E+00
-1.7071875E+00,+1.5213960E+00
-1.7068750E+00,+1.5213960E+00
-1.7065625E+00,+1.5201398E+00
-1.7062500E+00,+1.5201398E+00
-1.7059375E+00,+1.5201398E+00
-1.7056250E+00,+1.5201398E+00
-1.7053125E+00,+1.5201398E+00
-1.7050000E+00,+1.5201398E+00
-1.7046875E+00,+1.5201398E+00
-1.7043750E+00,+1.5201398E+00
-1.7040625E+00,+1.5201398E+00
-1.7037500E+00,+1.5188835E+00
-1.7034375E+00,+1.5188835E+00
-1.7031250E+00,+1.5188835E+00
-1.7028125E+00,+1.5188835E+00
-1.7025000E+00,+1.5188835E+00
-1.7021875E+00,+1.5188835E+00
-1.7018750E+00,+1.5188835E+00
-1.7015625E+00,+1.5188835E+00
-1.7012500E+00,+1.5188835E+00
-1.7009375E+00,+1.5188835E+00
-1.7006250E+00,+1.5176272E+00
-1.7003125E+00,+1.5188835E+00
-1.7000000E+00,+1.5176272E+00
-1.6996875E+00,+1.5176272E+00
-1.6993750E+00,+1.5176272E+00
-1.6990625E+00,+1.5188835E+00
-1.6987500E+00,+1.5176272E+00
-1.6984375E+00,+1.5176272E+00
-1.6981250E+00,+1.5176272E+00
-1.6978125E+00,+1.5176272E+00
-1.6975000E+00,+1.5176272E+00
-1.6971875E+00,+1.5176272E+00
-1.6968750E+00,+1.5176272E+00
-1.6965625E+00,+1.5176272E+00
-1.6962500E+00,+1.5176272E+00
-1.6959375E+00,+1.5176272E+00
-1.6956250E+00,+1.5176272E+00
-1.6953125E+00,+1.5163709E+00
-1.6950000E+00,+1.5176272E+00
-1.6946875E+00,+1.5176272E+00
-1.6943750E+00,+1.5176272E+00
-1.6940625E+00,+1.5176272E+00
-1.6937500E+00,+1.5163709E+00
-1.6934375E+00,+1.5163709E+00
-1.6931250E+00,+1.5163709E+00
-1.6928125E+00,+1.5163709E+00
-1.6925000E+00,+1.5163709E+00
-1.6921875E+00,+1.5163709E+00
-1.6918750E+00,+1.5163709E+00
-1.6915625E+00,+1.5163709E+00
-1.6912500E+00,+1.5163709E+00
-1.6909375E+00,+1.5163709E+00
-1.6906250E+00,+1.5163709E+00
-1.6903125E+00,+1.5151146E+00
-1.6900000E+00,+1.5151146E+00
-1.6896875E+00,+1.5163709E+00
-1.6893750E+00,+1.5163709E+00
-1.6890625E+00,+1.5151146E+00
-1.6887500E+00,+1.5151146E+00
-1.6884375E+00,+1.5151146E+00
-1.6881250E+00,+1.5151146E+00
-1.6878125E+00,+1.5151146E+00
-1.6875000E+00,+1.5151146E+00
-1.6871875E+00,+1.5138584E+00
-1.6868750E+00,+1.5151146E+00
-1.6865625E+00,+1.5151146E+00
-1.6862500E+00,+1.5151146E+00
-1.6859375E+00,+1.5151146E+00
-1.6856250E+00,+1.5151146E+00
-1.6853125E+00,+1.5151146E+00
-1.6850000E+00,+1.5151146E+00
-1.6846875E+00,+1.5151146E+00
-1.6843750E+00,+1.5138584E+00
-1.6840625E+00,+1.5138584E+00
-1.6837500E+00,+1.5138584E+00
-1.6834375E+00,+1.5138584E+00
-1.6831250E+00,+1.5138584E+00
-1.6828125E+00,+1.5138584E+00
-1.6825000E+00,+1.5151146E+00
-1.6821875E+00,+1.5151146E+00
-1.6818750E+00,+1.5151146E+00
-1.6815625E+00,+1.5151146E+00
-1.6812500E+00,+1.5151146E+00
-1.6809375E+00,+1.5151146E+00
-1.6806250E+00,+1.5151146E+00
-1.6803125E+00,+1.5138584E+00
-1.6800000E+00,+1.5138584E+00
-1.6796875E+00,+1.5138584E+00
-1.6793750E+00,+1.5138584E+00
-1.6790625E+00,+1.5138584E+00
-1.6787500E+00,+1.5138584E+00
-1.6784375E+00,+1.5138584E+00
-1.6781250E+00,+1.5138584E+00
-1.6778125E+00,+1.5138584E+00
-1.6775000E+00,+1.5138584E+00
-1.6771875E+00,+1.5138584E+00
-1.6768750E+00,+1.5138584E+00
-1.6765625E+00,+1.5138584E+00
-1.6762500E+00,+1.5126021E+00
-1.6759375E+00,+1.5138584E+00
-1.6756250E+00,+1.5126021E+00
-1.6753125E+00,+1.5126021E+00
-1.6750000E+00,+1.5138584E+00
-1.6746875E+00,+1.5126021E+00
-1.6743750E+00,+1.5126021E+00
-1.6740625E+00,+1.5126021E+00
-1.6737500E+00,+1.5126021E+00
-1.6734375E+00,+1.5113458E+00
-1.6731250E+00,+1.5113458E+00
-1.6728125E+00,+1.5126021E+00
-1.6725000E+00,+1.5113458E+00
-1.6721875E+00,+1.5113458E+00
-1.6718750E+00,+1.5113458E+00
-1.6715625E+00,+1.5113458E+00
-1.6712500E+00,+1.5113458E+00
-1.6709375E+00,+1.5113458E+00
-1.6706250E+00,+1.5113458E+00
-1.6703125E+00,+1.5113458E+00
-1.6700000E+00,+1.5113458E+00
-1.6696875E+00,+1.5113458E+00
-1.6693750E+00,+1.5113458E+00
-1.6690625E+00,+1.5100895E+00
-1.6687500E+00,+1.5113458E+00
-1.6684375E+00,+1.5113458E+00
-1.6681250E+00,+1.5100895E+00
-1.6678125E+00,+1.5100895E+00
-1.6675000E+00,+1.5100895E+00
-1.6671875E+00,+1.5100895E+00
-1.6668750E+00,+1.5100895E+00
-1.6665625E+00,+1.5100895E+00
-1.6662500E+00,+1.5100895E+00
-1.6659375E+00,+1.5100895E+00
-1.6656250E+00,+1.5100895E+00
-1.6653125E+00,+1.5100895E+00
-1.6650000E+00,+1.5100895E+00
-1.6646875E+00,+1.5100895E+00
-1.6643750E+00,+1.5100895E+00
-1.6640625E+00,+1.5100895E+00
-1.6637500E+00,+1.5088332E+00
-1.6634375E+00,+1.5100895E+00
-1.6631250E+00,+1.5088332E+00
-1.6628125E+00,+1.5088332E+00
-1.6625000E+00,+1.5100895E+00
-1.6621875E+00,+1.5088332E+00
-1.6618750E+00,+1.5100895E+00
-1.6615625E+00,+1.5100895E+00
-1.6612500E+00,+1.5088332E+00
-1.6609375E+00,+1.5088332E+00
-1.6606250E+00,+1.5088332E+00
-1.6603125E+00,+1.5088332E+00
-1.6600000E+00,+1.5088332E+00
-1.6596875E+00,+1.5088332E+00
-1.6593750E+00,+1.5088332E+00
-1.6590625E+00,+1.5075769E+00
-1.6587500E+00,+1.5075769E+00
-1.6584375E+00,+1.5088332E+00
-1.6581250E+00,+1.5075769E+00
-1.6578125E+00,+1.5075769E+00
-1.6575000E+00,+1.5075769E+00
-1.6571875E+00,+1.5075769E+00
-1.6568750E+00,+1.5075769E+00
-1.6565625E+00,+1.5075769E+00
-1.6562500E+00,+1.5075769E+00
-1.6559375E+00,+1.5088332E+00
-1.6556250E+00,+1.5075769E+00
-1.6553125E+00,+1.5075769E+00
-1.6550000E+00,+1.5075769E+00
-1.6546875E+00,+1.5075769E+00
-1.6543750E+00,+1.5075769E+00
-1.6540625E+00,+1.5075769E+00
-1.6537500E+00,+1.5075769E+00
-1.6534375E+00,+1.5063207E+00
-1.6531250E+00,+1.5063207E+00
-1.6528125E+00,+1.5050644E+00
-1.6525000E+00,+1.5038081E+00
-1.6521875E+00,+1.5038081E+00
-1.6518750E+00,+1.5025518E+00
-1.6515625E+00,+1.5012955E+00
-1.6512500E+00,+1.5012955E+00
-1.6509375E+00,+1.4987830E+00
-1.6506250E+00,+1.4975267E+00
-1.6503125E+00,+1.4962704E+00
-1.6500000E+00,+1.4950141E+00
-1.6496875E+00,+1.4925016E+00
-1.6493750E+00,+1.4899890E+00
-1.6490625E+00,+1.4874764E+00
-1.6487500E+00,+1.4849639E+00
-1.6484375E+00,+1.4824513E+00
-1.6481250E+00,+1.4799388E+00
-1.6478125E+00,+1.4774262E+00
-1.6475000E+00,+1.4749136E+00
-1.6471875E+00,+1.4711448E+00
-1.6468750E+00,+1.4673759E+00
-1.6465625E+00,+1.4636071E+00
-1.6462500E+00,+1.4610945E+00
-1.6459375E+00,+1.4585820E+00
-1.6456250E+00,+1.4548131E+00
-1.6453125E+00,+1.4497880E+00
-1.6450000E+00,+1.4460192E+00
-1.6446875E+00,+1.4422503E+00
-1.6443750E+00,+1.4384815E+00
-1.6440625E+00,+1.4347126E+00
-1.6437500E+00,+1.4296875E+00
-1.6434375E+00,+1.4246624E+00
-1.6431250E+00,+1.4208935E+00
-1.6428125E+00,+1.4158684E+00
-1.6425000E+00,+1.4108433E+00
-1.6421875E+00,+1.4058182E+00
-1.6418750E+00,+1.4007930E+00
-1.6415625E+00,+1.3957679E+00
-1.6412500E+00,+1.3894865E+00
-1.6409375E+00,+1.3832051E+00
-1.6406250E+00,+1.3781800E+00
-1.6403125E+00,+1.3706423E+00
-1.6400000E+00,+1.3643609E+00
-1.6396875E+00,+1.3580795E+00
-1.6393750E+00,+1.3530543E+00
-1.6390625E+00,+1.3455166E+00
-1.6387500E+00,+1.3379790E+00
-1.6384375E+00,+1.3316976E+00
-1.6381250E+00,+1.3241599E+00
-1.6378125E+00,+1.3178785E+00
-1.6375000E+00,+1.3103408E+00
-1.6371875E+00,+1.3028031E+00
-1.6368750E+00,+1.2952654E+00
-1.6365625E+00,+1.2877277E+00
-1.6362500E+00,+1.2801900E+00
-1.6359375E+00,+1.2739086E+00
-1.6356250E+00,+1.2651146E+00
-1.6353125E+00,+1.2575769E+00
-1.6350000E+00,+1.2512955E+00
-1.6346875E+00,+1.2450141E+00
-1.6343750E+00,+1.2387327E+00
-1.6340625E+00,+1.2311950E+00
-1.6337500E+00,+1.2249136E+00
-1.6334375E+00,+1.2198885E+00
-1.6331250E+00,+1.2161197E+00
-1.6328125E+00,+1.2110945E+00
-1.6325000E+00,+1.2060694E+00
-1.6321875E+00,+1.2010443E+00
-1.6318750E+00,+1.1972754E+00
-1.6315625E+00,+1.1935066E+00
-1.6312500E+00,+1.1897378E+00
-1.6309375E+00,+1.1872252E+00
-1.6306250E+00,+1.1847126E+00
-1.6303125E+00,+1.1834563E+00
-1.6300000E+00,+1.1809438E+00
-1.6296875E+00,+1.1809438E+00
-1.6293750E+00,+1.1796875E+00
-1.6290625E+00,+1.1796875E+00
-1.6287500E+00,+1.1796875E+00
-1.6284375E+00,+1.1796875E+00
-1.6281250E+00,+1.1809438E+00
-1.6278125E+00,+1.1822001E+00
-1.6275000E+00,+1.1847126E+00
-1.6271875E+00,+1.1859689E+00
-1.6268750E+00,+1.1897378E+00
-1.6265625E+00,+1.1922503E+00
-1.6262500E+00,+1.1960192E+00
-1.6259375E+00,+1.1997880E+00
-1.6256250E+00,+1.2035568E+00
-1.6253125E+00,+1.2073257E+00
-1.6250000E+00,+1.2136071E+00
-1.6246875E+00,+1.2186322E+00
-1.6243750E+00,+1.2249136E+00
-1.6240625E+00,+1.2311950E+00
-1.6237500E+00,+1.2387327E+00
-1.6234375E+00,+1.2450141E+00
-1.6231250E+00,+1.2538081E+00
-1.6228125E+00,+1.2613458E+00
-1.6225000E+00,+1.2701398E+00
-1.6221875E+00,+1.2789337E+00
-1.6218750E+00,+1.2877277E+00
-1.6215625E+00,+1.2965217E+00
-1.6212500E+00,+1.3053156E+00
-1.6209375E+00,+1.3166222E+00
-1.6206250E+00,+1.3266724E+00
-1.6203125E+00,+1.3379790E+00
-1.6200000E+00,+1.3505418E+00
-1.6196875E+00,+1.3618483E+00
-1.6193750E+00,+1.3744111E+00
-1.6190625E+00,+1.3869739E+00
-1.6187500E+00,+1.4007930E+00
-1.6184375E+00,+1.4133558E+00
-1.6181250E+00,+1.4271749E+00
-1.6178125E+00,+1.4409940E+00
-1.6175000E+00,+1.4548131E+00
-1.6171875E+00,+1.4698885E+00
-1.6168750E+00,+1.4862202E+00
-1.6165625E+00,+1.5012955E+00
-1.6162500E+00,+1.5176272E+00
-1.6159375E+00,+1.5352151E+00
-1.6156250E+00,+1.5515468E+00
-1.6153125E+00,+1.5691347E+00
-1.6150000E+00,+1.5854664E+00
-1.6146875E+00,+1.6043106E+00
-1.6143750E+00,+1.6231548E+00
-1.6140625E+00,+1.6419991E+00
-1.6137500E+00,+1.6608433E+00
-1.6134375E+00,+1.6809438E+00
-1.6131250E+00,+1.7010443E+00
-1.6128125E+00,+1.7186322E+00
-1.6125000E+00,+1.7374764E+00
-1.6121875E+00,+1.7575769E+00
-1.6118750E+00,+1.7764212E+00
-1.6115625E+00,+1.7952654E+00
-1.6112500E+00,+1.8141096E+00
-1.6109375E+00,+1.8342101E+00
-1.6106250E+00,+1.8530543E+00
-1.6103125E+00,+1.8731548E+00
-1.6100000E+00,+1.8919991E+00
-1.6096875E+00,+1.9108433E+00
-1.6093750E+00,+1.9296875E+00
-1.6090625E+00,+1.9485317E+00
-1.6087500E+00,+1.9673759E+00
-1.6084375E+00,+1.9874764E+00
-1.6081250E+00,+2.0063207E+00
-1.6078125E+00,+2.0276774E+00
-1.6075000E+00,+2.0452654E+00
-1.6071875E+00,+2.0653659E+00
-1.6068750E+00,+2.0842101E+00
-1.6065625E+00,+2.1030543E+00
-1.6062500E+00,+2.1218985E+00
-1.6059375E+00,+2.1419991E+00
-1.6056250E+00,+2.1608433E+00
-1.6053125E+00,+2.1796875E+00
-1.6050000E+00,+2.1997880E+00
-1.6046875E+00,+2.2186322E+00
-1.6043750E+00,+2.2387327E+00
-1.6040625E+00,+2.2563207E+00
-1.6037500E+00,+2.2764212E+00
-1.6034375E+00,+2.2952654E+00
-1.6031250E+00,+2.3153659E+00
-1.6028125E+00,+2.3354664E+00
-1.6025000E+00,+2.3530543E+00
-1.6021875E+00,+2.3718985E+00
-1.6018750E+00,+2.3907428E+00
-1.6015625E+00,+2.4108433E+00
-1.6012500E+00,+2.4296875E+00
-1.6009375E+00,+2.4472754E+00
-1.6006250E+00,+2.4661197E+00
-1.6003125E+00,+2.4862202E+00
-1.6000000E+00,+2.5050644E+00
-1.5996875E+00,+2.5239086E+00
-1.5993750E+00,+2.5427528E+00
-1.5990625E+00,+2.5615970E+00
-1.5987500E+00,+2.5816975E+00
-1.5984375E+00,+2.6005418E+00
-1.5981250E+00,+2.6193860E+00
-1.5978125E+00,+2.6382302E+00
-1.5975000E+00,+2.6570744E+00
-1.5971875E+00,+2.6771749E+00
-1.5968750E+00,+2.6960191E+00
-1.5965625E+00,+2.7148634E+00
-1.5962500E+00,+2.7349639E+00
-1.5959375E+00,+2.7538081E+00
-1.5956250E+00,+2.7726523E+00
-1.5953125E+00,+2.7902403E+00
-1.5950000E+00,+2.8065719E+00
-1.5946875E+00,+2.8216473E+00
-1.5943750E+00,+2.8379789E+00
-1.5940625E+00,+2.8530543E+00
-1.5937500E+00,+2.8668734E+00
-1.5934375E+00,+2.8806925E+00
-1.5931250E+00,+2.8932553E+00
-1.5928125E+00,+2.9045619E+00
-1.5925000E+00,+2.9171247E+00
-1.5921875E+00,+2.9271749E+00
-1.5918750E+00,+2.9372252E+00
-1.5915625E+00,+2.9472754E+00
-1.5912500E+00,+2.9573257E+00
-1.5909375E+00,+2.9661196E+00
-1.5906250E+00,+2.9724011E+00
-1.5903125E+00,+2.9811950E+00
-1.5900000E+00,+2.9862201E+00
-1.5896875E+00,+2.9912453E+00
-1.5893750E+00,+2.9962704E+00
-1.5890625E+00,+3.0012955E+00
-1.5887500E+00,+3.0050644E+00
-1.5884375E+00,+3.0088332E+00
-1.5881250E+00,+3.0100895E+00
-1.5878125E+00,+3.0113458E+00
-1.5875000E+00,+3.0126021E+00
-1.5871875E+00,+3.0126021E+00
-1.5868750E+00,+3.0126021E+00
-1.5865625E+00,+3.0113458E+00
-1.5862500E+00,+3.0088332E+00
-1.5859375E+00,+3.0075769E+00
-1.5856250E+00,+3.0038081E+00
-1.5853125E+00,+3.0012955E+00
-1.5850000E+00,+2.9962704E+00
-1.5846875E+00,+2.9912453E+00
-1.5843750E+00,+2.9862201E+00
-1.5840625E+00,+2.9811950E+00
-1.5837500E+00,+2.9736573E+00
-1.5834375E+00,+2.9648634E+00
-1.5831250E+00,+2.9573257E+00
-1.5828125E+00,+2.9472754E+00
-1.5825000E+00,+2.9384815E+00
-1.5821875E+00,+2.9284312E+00
-1.5818750E+00,+2.9183810E+00
-1.5815625E+00,+2.9070744E+00
-1.5812500E+00,+2.8945116E+00
-1.5809375E+00,+2.8819488E+00
-1.5806250E+00,+2.8693860E+00
-1.5803125E+00,+2.8555669E+00
-1.5800000E+00,+2.8392352E+00
-1.5796875E+00,+2.8229036E+00
-1.5793750E+00,+2.8078282E+00
-1.5790625E+00,+2.7902402E+00
-1.5787500E+00,+2.7739086E+00
-1.5784375E+00,+2.7550644E+00
-1.5781250E+00,+2.7362202E+00
-1.5778125E+00,+2.7161196E+00
-1.5775000E+00,+2.6960191E+00
-1.5771875E+00,+2.6759186E+00
-1.5768750E+00,+2.6533056E+00
-1.5765625E+00,+2.6319488E+00
-1.5762500E+00,+2.6093357E+00
-1.5759375E+00,+2.5867227E+00
-1.5756250E+00,+2.5615970E+00
-1.5753125E+00,+2.5364714E+00
-1.5750000E+00,+2.5126021E+00
-1.5746875E+00,+2.4862202E+00
-1.5743750E+00,+2.4585820E+00
-1.5740625E+00,+2.4334563E+00
-1.5737500E+00,+2.4058181E+00
-1.5734375E+00,+2.3781800E+00
-1.5731250E+00,+2.3517980E+00
-1.5728125E+00,+2.3241599E+00
-1.5725000E+00,+2.2965217E+00
-1.5721875E+00,+2.2688835E+00
-1.5718750E+00,+2.2425016E+00
-1.5715625E+00,+2.2148634E+00
-1.5712500E+00,+2.1872252E+00
-1.5709375E+00,+2.1595870E+00
-1.5706250E+00,+2.1319488E+00
-1.5703125E+00,+2.1043106E+00
-1.5700000E+00,+2.0766724E+00
-1.5696875E+00,+2.0502905E+00
-1.5693750E+00,+2.0226523E+00
-1.5690625E+00,+1.9937578E+00
-1.5687500E+00,+1.9661197E+00
-1.5684375E+00,+1.9397377E+00
-1.5681250E+00,+1.9120996E+00
-1.5678125E+00,+1.8844614E+00
-1.5675000E+00,+1.8580795E+00
-1.5671875E+00,+1.8291850E+00
-1.5668750E+00,+1.8015468E+00
-1.5665625E+00,+1.7739086E+00
-1.5662500E+00,+1.7475267E+00
-1.5659375E+00,+1.7198885E+00
-1.5656250E+00,+1.6922503E+00
-1.5653125E+00,+1.6658684E+00
-1.5650000E+00,+1.6382302E+00
-1.5646875E+00,+1.6093357E+00
-1.5643750E+00,+1.5816975E+00
-1.5640625E+00,+1.5553156E+00
-1.5637500E+00,+1.5289337E+00
-1.5634375E+00,+1.5012955E+00
-1.5631250E+00,+1.4749136E+00
-1.5628125E+00,+1.4485317E+00
-1.5625000E+00,+1.4221498E+00
-1.5621875E+00,+1.3945116E+00
-1.5618750E+00,+1.3668734E+00
-1.5615625E+00,+1.3392352E+00
-1.5612500E+00,+1.3115970E+00
-1.5609375E+00,+1.2852151E+00
-1.5606250E+00,+1.2575769E+00
-1.5603125E+00,+1.2299388E+00
-1.5600000E+00,+1.2023006E+00
-1.5596875E+00,+1.1746624E+00
-1.5593750E+00,+1.1470242E+00
-1.5590625E+00,+1.1206423E+00
-1.5587500E+00,+1.0930041E+00
-1.5584375E+00,+1.0653659E+00
-1.5581250E+00,+1.0377277E+00
-1.5578125E+00,+1.0100895E+00
-1.5575000E+00,+982.4513E-03
-1.5571875E+00,+954.8131E-03
-1.5568750E+00,+927.1749E-03
-1.5565625E+00,+900.7930E-03
-1.5562500E+00,+873.1548E-03
-1.5559375E+00,+845.5167E-03
-1.5556250E+00,+819.1347E-03
-1.5553125E+00,+794.0091E-03
-1.5550000E+00,+770.1398E-03
-1.5546875E+00,+745.0141E-03
-1.5543750E+00,+721.1448E-03
-1.5540625E+00,+698.5317E-03
-1.5537500E+00,+677.1749E-03
-1.5534375E+00,+655.8182E-03
-1.5531250E+00,+635.7177E-03
-1.5528125E+00,+616.8734E-03
-1.5525000E+00,+598.0292E-03
-1.5521875E+00,+580.4413E-03
-1.5518750E+00,+562.8533E-03
-1.5515625E+00,+547.7780E-03
-1.5512500E+00,+532.7026E-03
-1.5509375E+00,+517.6272E-03
-1.5506250E+00,+503.8081E-03
-1.5503125E+00,+491.2453E-03
-1.5500000E+00,+479.9388E-03
-1.5496875E+00,+468.6322E-03
-1.5493750E+00,+458.5820E-03
-1.5490625E+00,+449.7880E-03
-1.5487500E+00,+440.9940E-03
-1.5484375E+00,+433.4564E-03
-1.5481250E+00,+425.9187E-03
-1.5478125E+00,+418.3810E-03
-1.5475000E+00,+413.3559E-03
-1.5471875E+00,+408.3307E-03
-1.5468750E+00,+403.3056E-03
-1.5465625E+00,+399.5368E-03
-1.5462500E+00,+397.0242E-03
-1.5459375E+00,+394.5116E-03
-1.5456250E+00,+393.2554E-03
-1.5453125E+00,+393.2554E-03
-1.5450000E+00,+393.2554E-03
-1.5446875E+00,+394.5116E-03
-1.5443750E+00,+395.7679E-03
-1.5440625E+00,+397.0242E-03
-1.5437500E+00,+400.7930E-03
-1.5434375E+00,+405.8182E-03
-1.5431250E+00,+410.8433E-03
-1.5428125E+00,+415.8684E-03
-1.5425000E+00,+422.1498E-03
-1.5421875E+00,+429.6875E-03
-1.5418750E+00,+437.2252E-03
-1.5415625E+00,+446.0192E-03
-1.5412500E+00,+456.0694E-03
-1.5409375E+00,+466.1197E-03
-1.5406250E+00,+476.1699E-03
-1.5403125E+00,+488.7327E-03
-1.5400000E+00,+501.2956E-03
-1.5396875E+00,+513.8584E-03
-1.5393750E+00,+528.9337E-03
-1.5390625E+00,+544.0091E-03
-1.5387500E+00,+559.0845E-03
-1.5384375E+00,+575.4162E-03
-1.5381250E+00,+593.0041E-03
-1.5378125E+00,+611.8483E-03
-1.5375000E+00,+629.4363E-03
-1.5371875E+00,+648.2805E-03
-1.5368750E+00,+668.3810E-03
-1.5365625E+00,+688.4815E-03
-1.5362500E+00,+707.3257E-03
-1.5359375E+00,+728.6825E-03
-1.5356250E+00,+748.7830E-03
-1.5353125E+00,+771.3961E-03
-1.5350000E+00,+791.4966E-03
-1.5346875E+00,+814.1096E-03
-1.5343750E+00,+837.9790E-03
-1.5340625E+00,+860.5920E-03
-1.5337500E+00,+881.9488E-03
-1.5334375E+00,+903.3056E-03
-1.5331250E+00,+924.6624E-03
-1.5328125E+00,+946.0192E-03
-1.5325000E+00,+967.3759E-03
-1.5321875E+00,+987.4765E-03
-1.5318750E+00,+1.0075770E+00
-1.5315625E+00,+1.0276775E+00
-1.5312500E+00,+1.0452654E+00
-1.5309375E+00,+1.0641096E+00
-1.5306250E+00,+1.0842101E+00
-1.5303125E+00,+1.1017981E+00
-1.5300000E+00,+1.1193860E+00
-1.5296875E+00,+1.1369739E+00
-1.5293750E+00,+1.1533056E+00
-1.5290625E+00,+1.1708935E+00
-1.5287500E+00,+1.1859689E+00
-1.5284375E+00,+1.2010443E+00
-1.5281250E+00,+1.2161197E+00
-1.5278125E+00,+1.2324513E+00
-1.5275000E+00,+1.2475267E+00
-1.5271875E+00,+1.2613458E+00
-1.5268750E+00,+1.2751649E+00
-1.5265625E+00,+1.2889840E+00
-1.5262500E+00,+1.3015468E+00
-1.5259375E+00,+1.3141096E+00
-1.5256250E+00,+1.3266724E+00
-1.5253125E+00,+1.3379790E+00
-1.5250000E+00,+1.3492855E+00
-1.5246875E+00,+1.3605920E+00
-1.5243750E+00,+1.3706423E+00
-1.5240625E+00,+1.3819488E+00
-1.5237500E+00,+1.3919991E+00
-1.5234375E+00,+1.4007930E+00
-1.5231250E+00,+1.4095870E+00
-1.5228125E+00,+1.4183810E+00
-1.5225000E+00,+1.4259187E+00
-1.5221875E+00,+1.4347126E+00
-1.5218750E+00,+1.4409940E+00
-1.5215625E+00,+1.4472754E+00
-1.5212500E+00,+1.4548131E+00
-1.5209375E+00,+1.4598383E+00
-1.5206250E+00,+1.4648634E+00
-1.5203125E+00,+1.4711448E+00
-1.5200000E+00,+1.4761699E+00
-1.5196875E+00,+1.4811950E+00
-1.5193750E+00,+1.4862202E+00
-1.5190625E+00,+1.4899890E+00
-1.5187500E+00,+1.4937579E+00
-1.5184375E+00,+1.4962704E+00
-1.5181250E+00,+1.4987830E+00
-1.5178125E+00,+1.5012955E+00
-1.5175000E+00,+1.5038081E+00
-1.5171875E+00,+1.5050644E+00
-1.5168750E+00,+1.5063207E+00
-1.5165625E+00,+1.5075769E+00
-1.5162500E+00,+1.5075769E+00
-1.5159375E+00,+1.5075769E+00
-1.5156250E+00,+1.5088332E+00
-1.5153125E+00,+1.5088332E+00
-1.5150000E+00,+1.5088332E+00
-1.5146875E+00,+1.5088332E+00
-1.5143750E+00,+1.5075769E+00
-1.5140625E+00,+1.5088332E+00
-1.5137500E+00,+1.5075769E+00
-1.5134375E+00,+1.5088332E+00
-1.5131250E+00,+1.5088332E+00
-1.5128125E+00,+1.5088332E+00
-1.5125000E+00,+1.5088332E+00
-1.5121875E+00,+1.5088332E+00
-1.5118750E+00,+1.5088332E+00
-1.5115625E+00,+1.5088332E+00
-1.5112500E+00,+1.5088332E+00
-1.5109375E+00,+1.5088332E+00
-1.5106250E+00,+1.5088332E+00
-1.5103125E+00,+1.5088332E+00
-1.5100000E+00,+1.5088332E+00
-1.5096875E+00,+1.5088332E+00
-1.5093750E+00,+1.5088332E+00
-1.5090625E+00,+1.5100895E+00
-1.5087500E+00,+1.5100895E+00
-1.5084375E+00,+1.5100895E+00
-1.5081250E+00,+1.5100895E+00
-1.5078125E+00,+1.5100895E+00
-1.5075000E+00,+1.5100895E+00
-1.5071875E+00,+1.5100895E+00
-1.5068750E+00,+1.5100895E+00
-1.5065625E+00,+1.5113458E+00
-1.5062500E+00,+1.5113458E+00
-1.5059375E+00,+1.5100895E+00
-1.5056250E+00,+1.5100895E+00
-1.5053125E+00,+1.5113458E+00
-1.5050000E+00,+1.5113458E+00
-1.5046875E+00,+1.5113458E+00
-1.5043750E+00,+1.5113458E+00
-1.5040625E+00,+1.5113458E+00
-1.5037500E+00,+1.5100895E+00
-1.5034375E+00,+1.5113458E+00
-1.5031250E+00,+1.5113458E+00
-1.5028125E+00,+1.5113458E+00
-1.5025000E+00,+1.5113458E+00
-1.5021875E+00,+1.5113458E+00
-1.5018750E+00,+1.5113458E+00
-1.5015625E+00,+1.5100895E+00
-1.5012500E+00,+1.5113458E+00
-1.5009375E+00,+1.5113458E+00
-1.5006250E+00,+1.5113458E+00
-1.5003125E+00,+1.5113458E+00
-1.5000000E+00,+1.5113458E+00
-1.4996875E+00,+1.5113458E+00
-1.4993750E+00,+1.5113458E+00
-1.4990625E+00,+1.5113458E+00
-1.4987500E+00,+1.5126021E+00
-1.4984375E+00,+1.5126021E+00
-1.4981250E+00,+1.5126021E+00
-1.4978125E+00,+1.5126021E+00
-1.4975000E+00,+1.5126021E+00
-1.4971875E+00,+1.5126021E+00
-1.4968750E+00,+1.5126021E+00
-1.4965625E+00,+1.5126021E+00
-1.4962500E+00,+1.5138584E+00
-1.4959375E+00,+1.5126021E+00
-1.4956250E+00,+1.5138584E+00
-1.4953125E+00,+1.5138584E+00
-1.4950000E+00,+1.5126021E+00
-1.4946875E+00,+1.5138584E+00
-1.4943750E+00,+1.5138584E+00
-1.4940625E+00,+1.5138584E+00
-1.4937500E+00,+1.5138584E+00
-1.4934375E+00,+1.5138584E+00
-1.4931250E+00,+1.5138584E+00
-1.4928125E+00,+1.5138584E+00
-1.4925000E+00,+1.5138584E+00
-1.4921875E+00,+1.5138584E+00
-1.4918750E+00,+1.5138584E+00
-1.4915625E+00,+1.5138584E+00
-1.4912500E+00,+1.5138584E+00
-1.4909375E+00,+1.5138584E+00
-1.4906250E+00,+1.5138584E+00
-1.4903125E+00,+1.5138584E+00
-1.4900000E+00,+1.5151146E+00
-1.4896875E+00,+1.5138584E+00
-1.4893750E+00,+1.5138584E+00
-1.4890625E+00,+1.5138584E+00
-1.4887500E+00,+1.5138584E+00
-1.4884375E+00,+1.5138584E+00
-1.4881250E+00,+1.5151146E+00
-1.4878125E+00,+1.5151146E+00
-1.4875000E+00,+1.5151146E+00
-1.4871875E+00,+1.5151146E+00
-1.4868750E+00,+1.5151146E+00
-1.4865625E+00,+1.5151146E+00
-1.4862500E+00,+1.5151146E+00
-1.4859375E+00,+1.5151146E+00
-1.4856250E+00,+1.5151146E+00
-1.4853125E+00,+1.5151146E+00
-1.4850000E+00,+1.5151146E+00
-1.4846875E+00,+1.5151146E+00
-1.4843750E+00,+1.5163709E+00
-1.4840625E+00,+1.5163709E+00
-1.4837500E+00,+1.5151146E+00
-1.4834375E+00,+1.5151146E+00
-1.4831250E+00,+1.5163709E+00
-1.4828125E+00,+1.5163709E+00
-1.4825000E+00,+1.5163709E+00
-1.4821875E+00,+1.5163709E+00
-1.4818750E+00,+1.5163709E+00
-1.4815625E+00,+1.5163709E+00
-1.4812500E+00,+1.5163709E+00
-1.4809375E+00,+1.5163709E+00
-1.4806250E+00,+1.5151146E+00
-1.4803125E+00,+1.5151146E+00
-1.4800000E+00,+1.5163709E+00
-1.4796875E+00,+1.5163709E+00
-1.4793750E+00,+1.5163709E+00
-1.4790625E+00,+1.5163709E+00
-1.4787500E+00,+1.5176272E+00
-1.4784375E+00,+1.5163709E+00
-1.4781250E+00,+1.5163709E+00
-1.4778125E+00,+1.5163709E+00
-1.4775000E+00,+1.5163709E+00
-1.4771875E+00,+1.5163709E+00
-1.4768750E+00,+1.5163709E+00
-1.4765625E+00,+1.5176272E+00
-1.4762500E+00,+1.5163709E+00
-1.4759375E+00,+1.5176272E+00
-1.4756250E+00,+1.5176272E+00
-1.4753125E+00,+1.5176272E+00
-1.4750000E+00,+1.5176272E+00
-1.4746875E+00,+1.5176272E+00
-1.4743750E+00,+1.5163709E+00
-1.4740625E+00,+1.5176272E+00
-1.4737500E+00,+1.5176272E+00
-1.4734375E+00,+1.5176272E+00
-1.4731250E+00,+1.5176272E+00
-1.4728125E+00,+1.5176272E+00
-1.4725000E+00,+1.5176272E+00
-1.4721875E+00,+1.5176272E+00
-1.4718750E+00,+1.5176272E+00
-1.4715625E+00,+1.5176272E+00
-1.4712500E+00,+1.5176272E+00
-1.4709375E+00,+1.5176272E+00
-1.4706250E+00,+1.5176272E+00
-1.4703125E+00,+1.5188835E+00
-1.4700000E+00,+1.5176272E+00
-1.4696875E+00,+1.5176272E+00
-1.4693750E+00,+1.5176272E+00
-1.4690625E+00,+1.5176272E+00
-1.4687500E+00,+1.5176272E+00
-1.4684375E+00,+1.5188835E+00
-1.4681250E+00,+1.5188835E+00
-1.4678125E+00,+1.5188835E+00
-1.4675000E+00,+1.5176272E+00
-1.4671875E+00,+1.5188835E+00
-1.4668750E+00,+1.5188835E+00
-1.4665625E+00,+1.5188835E+00
-1.4662500E+00,+1.5188835E+00
-1.4659375E+00,+1.5188835E+00
-1.4656250E+00,+1.5188835E+00
-1.4653125E+00,+1.5188835E+00
-1.4650000E+00,+1.5188835E+00
-1.4646875E+00,+1.5188835E+00
-1.4643750E+00,+1.5188835E+00
-1.4640625E+00,+1.5201398E+00
-1.4637500E+00,+1.5188835E+00
-1.4634375E+00,+1.5188835E+00
-1.4631250E+00,+1.5201398E+00
-1.4628125E+00,+1.5201398E+00
-1.4625000E+00,+1.5201398E+00
-1.4621875E+00,+1.5188835E+00
-1.4618750E+00,+1.5201398E+00
-1.4615625E+00,+1.5201398E+00
-1.4612500E+00,+1.5201398E+00
-1.4609375E+00,+1.5201398E+00
-1.4606250E+00,+1.5201398E+00
-1.4603125E+00,+1.5201398E+00
-1.4600000E+00,+1.5201398E+00
-1.4596875E+00,+1.5201398E+00
-1.4593750E+00,+1.5201398E+00
-1.4590625E+00,+1.5201398E+00
-1.4587500E+00,+1.5201398E+00
-1.4584375E+00,+1.5213960E+00
-1.4581250E+00,+1.5213960E+00
-1.4578125E+00,+1.5213960E+00
-1.4575000E+00,+1.5213960E+00
-1.4571875E+00,+1.5201398E+00
-1.4568750E+00,+1.5201398E+00
-1.4565625E+00,+1.5201398E+00
-1.4562500E+00,+1.5201398E+00
-1.4559375E+00,+1.5201398E+00
-1.4556250E+00,+1.5213960E+00
-1.4553125E+00,+1.5213960E+00
-1.4550000E+00,+1.5213960E+00
-1.4546875E+00,+1.5213960E+00
-1.4543750E+00,+1.5213960E+00
-1.4540625E+00,+1.5213960E+00
-1.4537500E+00,+1.5213960E+00
-1.4534375E+00,+1.5226523E+00
-1.4531250E+00,+1.5213960E+00
-1.4528125E+00,+1.5213960E+00
-1.4525000E+00,+1.5213960E+00
-1.4521875E+00,+1.5213960E+00
-1.4518750E+00,+1.5213960E+00
-1.4515625E+00,+1.5213960E+00
-1.4512500E+00,+1.5213960E+00
-1.4509375E+00,+1.5213960E+00
-1.4506250E+00,+1.5226523E+00
-1.4503125E+00,+1.5226523E+00
-1.4500000E+00,+1.5226523E+00
-1.4496875E+00,+1.5213960E+00
-1.4493750E+00,+1.5213960E+00
-1.4490625E+00,+1.5226523E+00
-1.4487500E+00,+1.5226523E+00
-1.4484375E+00,+1.5226523E+00
-1.4481250E+00,+1.5226523E+00
-1.4478125E+00,+1.5226523E+00
-1.4475000E+00,+1.5226523E+00
-1.4471875E+00,+1.5226523E+00
-1.4468750E+00,+1.5226523E+00
-1.4465625E+00,+1.5226523E+00
-1.4462500E+00,+1.5226523E+00
-1.4459375E+00,+1.5226523E+00
-1.4456250E+00,+1.5213960E+00
-1.4453125E+00,+1.5226523E+00
-1.4450000E+00,+1.5226523E+00
-1.4446875E+00,+1.5239086E+00
-1.4443750E+00,+1.5226523E+00
-1.4440625E+00,+1.5226523E+00
-1.4437500E+00,+1.5239086E+00
-1.4434375E+00,+1.5239086E+00
-1.4431250E+00,+1.5239086E+00
-1.4428125E+00,+1.5226523E+00
-1.4425000E+00,+1.5239086E+00
-1.4421875E+00,+1.5239086E+00
-1.4418750E+00,+1.5239086E+00
-1.4415625E+00,+1.5239086E+00
-1.4412500E+00,+1.5239086E+00
-1.4409375E+00,+1.5226523E+00
-1.4406250E+00,+1.5239086E+00
-1.4403125E+00,+1.5239086E+00
-1.4400000E+00,+1.5239086E+00
-1.4396875E+00,+1.5251649E+00
-1.4393750E+00,+1.5239086E+00
-1.4390625E+00,+1.5239086E+00
-1.4387500E+00,+1.5251649E+00
-1.4384375E+00,+1.5251649E+00
-1.4381250E+00,+1.5251649E+00
-1.4378125E+00,+1.5251649E+00
-1.4375000E+00,+1.5251649E+00
-1.4371875E+00,+1.5251649E+00
-1.4368750E+00,+1.5251649E+00
-1.4365625E+00,+1.5239086E+00
-1.4362500E+00,+1.5251649E+00
-1.4359375E+00,+1.5251649E+00
-1.4356250E+00,+1.5251649E+00
-1.4353125E+00,+1.5251649E+00
-1.4350000E+00,+1.5251649E+00
-1.4346875E+00,+1.5251649E+00
-1.4343750E+00,+1.5251649E+00
-1.4340625E+00,+1.5264212E+00
-1.4337500E+00,+1.5264212E+00
-1.4334375E+00,+1.5264212E+00
-1.4331250E+00,+1.5264212E+00
-1.4328125E+00,+1.5264212E+00
-1.4325000E+00,+1.5264212E+00
-1.4321875E+00,+1.5264212E+00
-1.4318750E+00,+1.5264212E+00
-1.4315625E+00,+1.5264212E+00
-1.4312500E+00,+1.5264212E+00
-1.4309375E+00,+1.5264212E+00
-1.4306250E+00,+1.5264212E+00
-1.4303125E+00,+1.5264212E+00
-1.4300000E+00,+1.5276774E+00
-1.4296875E+00,+1.5276774E+00
-1.4293750E+00,+1.5264212E+00
-1.4290625E+00,+1.5264212E+00
-1.4287500E+00,+1.5264212E+00
-1.4284375E+00,+1.5264212E+00
-1.4281250E+00,+1.5264212E+00
-1.4278125E+00,+1.5276774E+00
-1.4275000E+00,+1.5276774E+00
-1.4271875E+00,+1.5276774E+00
-1.4268750E+00,+1.5264212E+00
-1.4265625E+00,+1.5276774E+00
-1.4262500E+00,+1.5276774E+00
-1.4259375E+00,+1.5276774E+00
-1.4256250E+00,+1.5276774E+00
-1.4253125E+00,+1.5276774E+00
-1.4250000E+00,+1.5276774E+00
-1.4246875E+00,+1.5276774E+00
-1.4243750E+00,+1.5276774E+00
-1.4240625E+00,+1.5289337E+00
-1.4237500E+00,+1.5289337E+00
-1.4234375E+00,+1.5289337E+00
-1.4231250E+00,+1.5289337E+00
-1.4228125E+00,+1.5289337E+00
-1.4225000E+00,+1.5289337E+00
-1.4221875E+00,+1.5289337E+00
-1.4218750E+00,+1.5289337E+00
-1.4215625E+00,+1.5289337E+00
-1.4212500E+00,+1.5289337E+00
-1.4209375E+00,+1.5301900E+00
-1.4206250E+00,+1.5289337E+00
-1.4203125E+00,+1.5289337E+00
-1.4200000E+00,+1.5289337E+00
-1.4196875E+00,+1.5289337E+00
-1.4193750E+00,+1.5301900E+00
-1.4190625E+00,+1.5289337E+00
-1.4187500E+00,+1.5289337E+00
-1.4184375E+00,+1.5289337E+00
-1.4181250E+00,+1.5301900E+00
-1.4178125E+00,+1.5301900E+00
-1.4175000E+00,+1.5301900E+00
-1.4171875E+00,+1.5301900E+00
-1.4168750E+00,+1.5301900E+00
-1.4165625E+00,+1.5301900E+00
-1.4162500E+00,+1.5301900E+00
-1.4159375E+00,+1.5301900E+00
-1.4156250E+00,+1.5301900E+00
-1.4153125E+00,+1.5301900E+00
-1.4150000E+00,+1.5314463E+00
-1.4146875E+00,+1.5314463E+00
-1.4143750E+00,+1.5314463E+00
-1.4140625E+00,+1.5314463E+00
-1.4137500E+00,+1.5314463E+00
-1.4134375E+00,+1.5314463E+00
-1.4131250E+00,+1.5314463E+00
-1.4128125E+00,+1.5314463E+00
-1.4125000E+00,+1.5314463E+00
-1.4121875E+00,+1.5301900E+00
-1.4118750E+00,+1.5314463E+00
-1.4115625E+00,+1.5314463E+00
-1.4112500E+00,+1.5314463E+00
-1.4109375E+00,+1.5314463E+00
-1.4106250E+00,+1.5314463E+00
-1.4103125E+00,+1.5314463E+00
-1.4100000E+00,+1.5327026E+00
-1.4096875E+00,+1.5327026E+00
-1.4093750E+00,+1.5327026E+00
-1.4090625E+00,+1.5314463E+00
-1.4087500E+00,+1.5314463E+00
-1.4084375E+00,+1.5314463E+00
-1.4081250E+00,+1.5327026E+00
-1.4078125E+00,+1.5314463E+00
-1.4075000E+00,+1.5314463E+00
-1.4071875E+00,+1.5314463E+00
-1.4068750E+00,+1.5314463E+00
-1.4065625E+00,+1.5314463E+00
-1.4062500E+00,+1.5327026E+00
-1.4059375E+00,+1.5327026E+00
-1.4056250E+00,+1.5314463E+00
-1.4053125E+00,+1.5327026E+00
-1.4050000E+00,+1.5314463E+00
-1.4046875E+00,+1.5327026E+00
-1.4043750E+00,+1.5327026E+00
-1.4040625E+00,+1.5327026E+00
-1.4037500E+00,+1.5339589E+00
-1.4034375E+00,+1.5339589E+00
-1.4031250E+00,+1.5339589E+00
-1.4028125E+00,+1.5339589E+00
-1.4025000E+00,+1.5339589E+00
-1.4021875E+00,+1.5339589E+00
-1.4018750E+00,+1.5339589E+00
-1.4015625E+00,+1.5339589E+00
-1.4012500E+00,+1.5339589E+00
-1.4009375E+00,+1.5339589E+00
-1.4006250E+00,+1.5339589E+00
-1.4003125E+00,+1.5339589E+00
-1.4000000E+00,+1.5352151E+00
-1.3996875E+00,+1.5352151E+00
-1.3993750E+00,+1.5352151E+00
-1.3990625E+00,+1.5352151E+00
-1.3987500E+00,+1.5352151E+00
-1.3984375E+00,+1.5352151E+00
-1.3981250E+00,+1.5352151E+00
-1.3978125E+00,+1.5352151E+00
-1.3975000E+00,+1.5352151E+00
-1.3971875E+00,+1.5352151E+00
-1.3968750E+00,+1.5352151E+00
-1.3965625E+00,+1.5352151E+00
-1.3962500E+00,+1.5352151E+00
-1.3959375E+00,+1.5352151E+00
-1.3956250E+00,+1.5352151E+00
-1.3953125E+00,+1.5364714E+00
-1.3950000E+00,+1.5352151E+00
-1.3946875E+00,+1.5352151E+00
-1.3943750E+00,+1.5352151E+00
-1.3940625E+00,+1.5352151E+00
-1.3937500E+00,+1.5352151E+00
-1.3934375E+00,+1.5352151E+00
-1.3931250E+00,+1.5352151E+00
-1.3928125E+00,+1.5352151E+00
-1.3925000E+00,+1.5352151E+00
-1.3921875E+00,+1.5352151E+00
-1.3918750E+00,+1.5364714E+00
-1.3915625E+00,+1.5364714E+00
-1.3912500E+00,+1.5364714E+00
-1.3909375E+00,+1.5364714E+00
-1.3906250E+00,+1.5364714E+00
-1.3903125E+00,+1.5364714E+00
-1.3900000E+00,+1.5364714E+00
-1.3896875E+00,+1.5364714E+00
-1.3893750E+00,+1.5377277E+00
-1.3890625E+00,+1.5377277E+00
-1.3887500E+00,+1.5377277E+00
-1.3884375E+00,+1.5377277E+00
-1.3881250E+00,+1.5377277E+00
-1.3878125E+00,+1.5389840E+00
-1.3875000E+00,+1.5389840E+00
-1.3871875E+00,+1.5402403E+00
-1.3868750E+00,+1.5402403E+00
-1.3865625E+00,+1.5402403E+00
-1.3862500E+00,+1.5402403E+00
-1.3859375E+00,+1.5414965E+00
-1.3856250E+00,+1.5414965E+00
-1.3853125E+00,+1.5427528E+00
-1.3850000E+00,+1.5427528E+00
-1.3846875E+00,+1.5440091E+00
-1.3843750E+00,+1.5440091E+00
-1.3840625E+00,+1.5440091E+00
-1.3837500E+00,+1.5452654E+00
-1.3834375E+00,+1.5465217E+00
-1.3831250E+00,+1.5477780E+00
-1.3828125E+00,+1.5477780E+00
-1.3825000E+00,+1.5490342E+00
-1.3821875E+00,+1.5490342E+00
-1.3818750E+00,+1.5502905E+00
-1.3815625E+00,+1.5502905E+00
-1.3812500E+00,+1.5528031E+00
-1.3809375E+00,+1.5528031E+00
-1.3806250E+00,+1.5528031E+00
-1.3803125E+00,+1.5553156E+00
-1.3800000E+00,+1.5553156E+00
-1.3796875E+00,+1.5565719E+00
-1.3793750E+00,+1.5578282E+00
-1.3790625E+00,+1.5590845E+00
-1.3787500E+00,+1.5590845E+00
-1.3784375E+00,+1.5603408E+00
-1.3781250E+00,+1.5615970E+00
-1.3778125E+00,+1.5615970E+00
-1.3775000E+00,+1.5641096E+00
-1.3771875E+00,+1.5653659E+00
-1.3768750E+00,+1.5666222E+00
-1.3765625E+00,+1.5666222E+00
-1.3762500E+00,+1.5691347E+00
-1.3759375E+00,+1.5691347E+00
-1.3756250E+00,+1.5703910E+00
-1.3753125E+00,+1.5716473E+00
-1.3750000E+00,+1.5741599E+00
-1.3746875E+00,+1.5754161E+00
-1.3743750E+00,+1.5766724E+00
-1.3740625E+00,+1.5779287E+00
-1.3737500E+00,+1.5791850E+00
-1.3734375E+00,+1.5791850E+00
-1.3731250E+00,+1.5804413E+00
-1.3728125E+00,+1.5829538E+00
-1.3725000E+00,+1.5842101E+00
-1.3721875E+00,+1.5854664E+00
-1.3718750E+00,+1.5879790E+00
-1.3715625E+00,+1.5892352E+00
-1.3712500E+00,+1.5904915E+00
-1.3709375E+00,+1.5930041E+00
-1.3706250E+00,+1.5955166E+00
-1.3703125E+00,+1.5955166E+00
-1.3700000E+00,+1.5967729E+00
-1.3696875E+00,+1.5992855E+00
-1.3693750E+00,+1.6005418E+00
-1.3690625E+00,+1.6017981E+00
-1.3687500E+00,+1.6030543E+00
-1.3684375E+00,+1.6055669E+00
-1.3681250E+00,+1.6068232E+00
-1.3678125E+00,+1.6093357E+00
-1.3675000E+00,+1.6105920E+00
-1.3671875E+00,+1.6118483E+00
-1.3668750E+00,+1.6143609E+00
-1.3665625E+00,+1.6168734E+00
-1.3662500E+00,+1.6168734E+00
-1.3659375E+00,+1.6193860E+00
-1.3656250E+00,+1.6206423E+00
-1.3653125E+00,+1.6218986E+00
-1.3650000E+00,+1.6244111E+00
-1.3646875E+00,+1.6256674E+00
-1.3643750E+00,+1.6269237E+00
-1.3640625E+00,+1.6281800E+00
-1.3637500E+00,+1.6294362E+00
-1.3634375E+00,+1.6319488E+00
-1.3631250E+00,+1.6332051E+00
-1.3628125E+00,+1.6357176E+00
-1.3625000E+00,+1.6369739E+00
-1.3621875E+00,+1.6382302E+00
-1.3618750E+00,+1.6394865E+00
-1.3615625E+00,+1.6419991E+00
-1.3612500E+00,+1.6432553E+00
-1.3609375E+00,+1.6445116E+00
-1.3606250E+00,+1.6457679E+00
-1.3603125E+00,+1.6482805E+00
-1.3600000E+00,+1.6495367E+00
-1.3596875E+00,+1.6520493E+00
-1.3593750E+00,+1.6533056E+00
-1.3590625E+00,+1.6558182E+00
-1.3587500E+00,+1.6570744E+00
-1.3584375E+00,+1.6583307E+00
-1.3581250E+00,+1.6608433E+00
-1.3578125E+00,+1.6620996E+00
-1.3575000E+00,+1.6633558E+00
-1.3571875E+00,+1.6646121E+00
-1.3568750E+00,+1.6671247E+00
-1.3565625E+00,+1.6683810E+00
-1.3562500E+00,+1.6708935E+00
-1.3559375E+00,+1.6721498E+00
-1.3556250E+00,+1.6746624E+00
-1.3553125E+00,+1.6759187E+00
-1.3550000E+00,+1.6771749E+00
-1.3546875E+00,+1.6784312E+00
-1.3543750E+00,+1.6809438E+00
-1.3540625E+00,+1.6809438E+00
-1.3537500E+00,+1.6834563E+00
-1.3534375E+00,+1.6847126E+00
-1.3531250E+00,+1.6872252E+00
-1.3528125E+00,+1.6872252E+00
-1.3525000E+00,+1.6897377E+00
-1.3521875E+00,+1.6922503E+00
-1.3518750E+00,+1.6947629E+00
-1.3515625E+00,+1.6960192E+00
-1.3512500E+00,+1.6972754E+00
-1.3509375E+00,+1.6985317E+00
-1.3506250E+00,+1.6997880E+00
-1.3503125E+00,+1.7023006E+00
-1.3500000E+00,+1.7035568E+00
-1.3496875E+00,+1.7048131E+00
-1.3493750E+00,+1.7073257E+00
-1.3490625E+00,+1.7085820E+00
-1.3487500E+00,+1.7110945E+00
-1.3484375E+00,+1.7123508E+00
-1.3481250E+00,+1.7136071E+00
-1.3478125E+00,+1.7161197E+00
-1.3475000E+00,+1.7173759E+00
-1.3471875E+00,+1.7186322E+00
-1.3468750E+00,+1.7211448E+00
-1.3465625E+00,+1.7211448E+00
-1.3462500E+00,+1.7236573E+00
-1.3459375E+00,+1.7249136E+00
-1.3456250E+00,+1.7261699E+00
-1.3453125E+00,+1.7274262E+00
-1.3450000E+00,+1.7299388E+00
-1.3446875E+00,+1.7324513E+00
-1.3443750E+00,+1.7337076E+00
-1.3440625E+00,+1.7362202E+00
-1.3437500E+00,+1.7374764E+00
-1.3434375E+00,+1.7387327E+00
-1.3431250E+00,+1.7399890E+00
-1.3428125E+00,+1.7412453E+00
-1.3425000E+00,+1.7425016E+00
-1.3421875E+00,+1.7437578E+00
-1.3418750E+00,+1.7450141E+00
-1.3415625E+00,+1.7475267E+00
-1.3412500E+00,+1.7487830E+00
-1.3409375E+00,+1.7500393E+00
-1.3406250E+00,+1.7525518E+00
-1.3403125E+00,+1.7538081E+00
-1.3400000E+00,+1.7563207E+00
-1.3396875E+00,+1.7575769E+00
-1.3393750E+00,+1.7588332E+00
-1.3390625E+00,+1.7613458E+00
-1.3387500E+00,+1.7638584E+00
-1.3384375E+00,+1.7651146E+00
-1.3381250E+00,+1.7651146E+00
-1.3378125E+00,+1.7676272E+00
-1.3375000E+00,+1.7701398E+00
-1.3371875E+00,+1.7713960E+00
-1.3368750E+00,+1.7739086E+00
-1.3365625E+00,+1.7764212E+00
-1.3362500E+00,+1.7776774E+00
-1.3359375E+00,+1.7776774E+00
-1.3356250E+00,+1.7801900E+00
-1.3353125E+00,+1.7814463E+00
-1.3350000E+00,+1.7827026E+00
-1.3346875E+00,+1.7839589E+00
-1.3343750E+00,+1.7852151E+00
-1.3340625E+00,+1.7864714E+00
-1.3337500E+00,+1.7889840E+00
-1.3334375E+00,+1.7902403E+00
-1.3331250E+00,+1.7927528E+00
-1.3328125E+00,+1.7940091E+00
-1.3325000E+00,+1.7952654E+00
-1.3321875E+00,+1.7965217E+00
-1.3318750E+00,+1.7977779E+00
-1.3315625E+00,+1.7990342E+00
-1.3312500E+00,+1.7990342E+00
-1.3309375E+00,+1.8015468E+00
-1.3306250E+00,+1.8015468E+00
-1.3303125E+00,+1.8028031E+00
-1.3300000E+00,+1.8040594E+00
-1.3296875E+00,+1.8040594E+00
-1.3293750E+00,+1.8053156E+00
-1.3290625E+00,+1.8065719E+00
-1.3287500E+00,+1.8078282E+00
-1.3284375E+00,+1.8090845E+00
-1.3281250E+00,+1.8090845E+00
-1.3278125E+00,+1.8090845E+00
-1.3275000E+00,+1.8090845E+00
-1.3271875E+00,+1.8103408E+00
-1.3268750E+00,+1.8115970E+00
-1.3265625E+00,+1.8128533E+00
-1.3262500E+00,+1.8128533E+00
-1.3259375E+00,+1.8128533E+00
-1.3256250E+00,+1.8141096E+00
-1.3253125E+00,+1.8141096E+00
-1.3250000E+00,+1.8141096E+00
-1.3246875E+00,+1.8153659E+00
-1.3243750E+00,+1.8141096E+00
-1.3240625E+00,+1.8141096E+00
-1.3237500E+00,+1.8141096E+00
-1.3234375E+00,+1.8153659E+00
-1.3231250E+00,+1.8153659E+00
-1.3228125E+00,+1.8141096E+00
-1.3225000E+00,+1.8141096E+00
-1.3221875E+00,+1.8141096E+00
-1.3218750E+00,+1.8141096E+00
-1.3215625E+00,+1.8128533E+00
-1.3212500E+00,+1.8128533E+00
-1.3209375E+00,+1.8115970E+00
-1.3206250E+00,+1.8115970E+00
-1.3203125E+00,+1.8115970E+00
-1.3200000E+00,+1.8103408E+00
-1.3196875E+00,+1.8103408E+00
-1.3193750E+00,+1.8103408E+00
-1.3190625E+00,+1.8090845E+00
-1.3187500E+00,+1.8090845E+00
-1.3184375E+00,+1.8078282E+00
-1.3181250E+00,+1.8078282E+00
-1.3178125E+00,+1.8065719E+00
-1.3175000E+00,+1.8053156E+00
-1.3171875E+00,+1.8040594E+00
-1.3168750E+00,+1.8040594E+00
-1.3165625E+00,+1.8028031E+00
-1.3162500E+00,+1.8015468E+00
-1.3159375E+00,+1.8015468E+00
-1.3156250E+00,+1.8002905E+00
-1.3153125E+00,+1.7990342E+00
-1.3150000E+00,+1.7977779E+00
-1.3146875E+00,+1.7965217E+00
-1.3143750E+00,+1.7965217E+00
-1.3140625E+00,+1.7940091E+00
-1.3137500E+00,+1.7927528E+00
-1.3134375E+00,+1.7902403E+00
-1.3131250E+00,+1.7889840E+00
-1.3128125E+00,+1.7864714E+00
-1.3125000E+00,+1.7852151E+00
-1.3121875E+00,+1.7839589E+00
-1.3118750E+00,+1.7827026E+00
-1.3115625E+00,+1.7801900E+00
-1.3112500E+00,+1.7801900E+00
-1.3109375E+00,+1.7776774E+00
-1.3106250E+00,+1.7764212E+00
-1.3103125E+00,+1.7751649E+00
-1.3100000E+00,+1.7726523E+00
-1.3096875E+00,+1.7713960E+00
-1.3093750E+00,+1.7701398E+00
-1.3090625E+00,+1.7676272E+00
-1.3087500E+00,+1.7651146E+00
-1.3084375E+00,+1.7638584E+00
-1.3081250E+00,+1.7626021E+00
-1.3078125E+00,+1.7613458E+00
-1.3075000E+00,+1.7600895E+00
-1.3071875E+00,+1.7575769E+00
-1.3068750E+00,+1.7563207E+00
-1.3065625E+00,+1.7550644E+00
-1.3062500E+00,+1.7538081E+00
-1.3059375E+00,+1.7512955E+00
-1.3056250E+00,+1.7487830E+00
-1.3053125E+00,+1.7475267E+00
-1.3050000E+00,+1.7462704E+00
-1.3046875E+00,+1.7437578E+00
-1.3043750E+00,+1.7425016E+00
-1.3040625E+00,+1.7399890E+00
-1.3037500E+00,+1.7399890E+00
-1.3034375E+00,+1.7387327E+00
-1.3031250E+00,+1.7374764E+00
-1.3028125E+00,+1.7349639E+00
-1.3025000E+00,+1.7337076E+00
-1.3021875E+00,+1.7324513E+00
-1.3018750E+00,+1.7299388E+00
-1.3015625E+00,+1.7286825E+00
-1.3012500E+00,+1.7261699E+00
-1.3009375E+00,+1.7249136E+00
-1.3006250E+00,+1.7236573E+00
-1.3003125E+00,+1.7211448E+00
-1.3000000E+00,+1.7198885E+00
-1.2996875E+00,+1.7186322E+00
-1.2993750E+00,+1.7173759E+00
-1.2990625E+00,+1.7161197E+00
-1.2987500E+00,+1.7136071E+00
-1.2984375E+00,+1.7123508E+00
-1.2981250E+00,+1.7098383E+00
-1.2978125E+00,+1.7085820E+00
-1.2975000E+00,+1.7073257E+00
-1.2971875E+00,+1.7060694E+00
-1.2968750E+00,+1.7035568E+00
-1.2965625E+00,+1.7023006E+00
-1.2962500E+00,+1.6997880E+00
-1.2959375E+00,+1.6985317E+00
-1.2956250E+00,+1.6972754E+00
-1.2953125E+00,+1.6960192E+00
-1.2950000E+00,+1.6935066E+00
-1.2946875E+00,+1.6922503E+00
-1.2943750E+00,+1.6909940E+00
-1.2940625E+00,+1.6884815E+00
-1.2937500E+00,+1.6872252E+00
-1.2934375E+00,+1.6847126E+00
-1.2931250E+00,+1.6834563E+00
-1.2928125E+00,+1.6822001E+00
-1.2925000E+00,+1.6809438E+00
-1.2921875E+00,+1.6784312E+00
-1.2918750E+00,+1.6771749E+00
-1.2915625E+00,+1.6759187E+00
-1.2912500E+00,+1.6746624E+00
-1.2909375E+00,+1.6721498E+00
-1.2906250E+00,+1.6708935E+00
-1.2903125E+00,+1.6683810E+00
-1.2900000E+00,+1.6671247E+00
-1.2896875E+00,+1.6633558E+00
-1.2893750E+00,+1.6633558E+00
-1.2890625E+00,+1.6620996E+00
-1.2887500E+00,+1.6595870E+00
-1.2884375E+00,+1.6583307E+00
-1.2881250E+00,+1.6570744E+00
-1.2878125E+00,+1.6558182E+00
-1.2875000E+00,+1.6533056E+00
-1.2871875E+00,+1.6520493E+00
-1.2868750E+00,+1.6507930E+00
-1.2865625E+00,+1.6495367E+00
-1.2862500E+00,+1.6470242E+00
-1.2859375E+00,+1.6457679E+00
-1.2856250E+00,+1.6445116E+00
-1.2853125E+00,+1.6419991E+00
-1.2850000E+00,+1.6407428E+00
-1.2846875E+00,+1.6394865E+00
-1.2843750E+00,+1.6382302E+00
-1.2840625E+00,+1.6369739E+00
-1.2837500E+00,+1.6344614E+00
-1.2834375E+00,+1.6332051E+00
-1.2831250E+00,+1.6306925E+00
-1.2828125E+00,+1.6294362E+00
-1.2825000E+00,+1.6281800E+00
-1.2821875E+00,+1.6256674E+00
-1.2818750E+00,+1.6244111E+00
-1.2815625E+00,+1.6218986E+00
-1.2812500E+00,+1.6206423E+00
-1.2809375E+00,+1.6193860E+00
-1.2806250E+00,+1.6181297E+00
-1.2803125E+00,+1.6168734E+00
-1.2800000E+00,+1.6143609E+00
-1.2796875E+00,+1.6131046E+00
-1.2793750E+00,+1.6118483E+00
-1.2790625E+00,+1.6093357E+00
-1.2787500E+00,+1.6068232E+00
-1.2784375E+00,+1.6068232E+00
-1.2781250E+00,+1.6043106E+00
-1.2778125E+00,+1.6017981E+00
-1.2775000E+00,+1.6005418E+00
-1.2771875E+00,+1.5992855E+00
-1.2768750E+00,+1.5980292E+00
-1.2765625E+00,+1.5967729E+00
-1.2762500E+00,+1.5955166E+00
-1.2759375E+00,+1.5930041E+00
-1.2756250E+00,+1.5904915E+00
-1.2753125E+00,+1.5892352E+00
-1.2750000E+00,+1.5879790E+00
-1.2746875E+00,+1.5867227E+00
-1.2743750E+00,+1.5842101E+00
-1.2740625E+00,+1.5829538E+00
-1.2737500E+00,+1.5816975E+00
-1.2734375E+00,+1.5804413E+00
-1.2731250E+00,+1.5791850E+00
-1.2728125E+00,+1.5779287E+00
-1.2725000E+00,+1.5766724E+00
-1.2721875E+00,+1.5754161E+00
-1.2718750E+00,+1.5741599E+00
-1.2715625E+00,+1.5729036E+00
-1.2712500E+00,+1.5716473E+00
-1.2709375E+00,+1.5691347E+00
-1.2706250E+00,+1.5678785E+00
-1.2703125E+00,+1.5666222E+00
-1.2700000E+00,+1.5653659E+00
-1.2696875E+00,+1.5641096E+00
-1.2693750E+00,+1.5628533E+00
-1.2690625E+00,+1.5615970E+00
-1.2687500E+00,+1.5603408E+00
-1.2684375E+00,+1.5590845E+00
-1.2681250E+00,+1.5590845E+00
-1.2678125E+00,+1.5578282E+00
-1.2675000E+00,+1.5565719E+00
-1.2671875E+00,+1.5565719E+00
-1.2668750E+00,+1.5553156E+00
-1.2665625E+00,+1.5540594E+00
-1.2662500E+00,+1.5528031E+00
-1.2659375E+00,+1.5528031E+00
-1.2656250E+00,+1.5515468E+00
-1.2653125E+00,+1.5502905E+00
-1.2650000E+00,+1.5490342E+00
-1.2646875E+00,+1.5477780E+00
-1.2643750E+00,+1.5465217E+00
-1.2640625E+00,+1.5465217E+00
-1.2637500E+00,+1.5452654E+00
-1.2634375E+00,+1.5440091E+00
-1.2631250E+00,+1.5440091E+00
-1.2628125E+00,+1.5427528E+00
-1.2625000E+00,+1.5427528E+00
-1.2621875E+00,+1.5414965E+00
-1.2618750E+00,+1.5402403E+00
-1.2615625E+00,+1.5402403E+00
-1.2612500E+00,+1.5389840E+00
-1.2609375E+00,+1.5389840E+00
-1.2606250E+00,+1.5377277E+00
-1.2603125E+00,+1.5377277E+00
-1.2600000E+00,+1.5364714E+00
-1.2596875E+00,+1.5364714E+00
-1.2593750E+00,+1.5352151E+00
-1.2590625E+00,+1.5352151E+00
-1.2587500E+00,+1.5339589E+00
-1.2584375E+00,+1.5327026E+00
-1.2581250E+00,+1.5327026E+00
-1.2578125E+00,+1.5327026E+00
-1.2575000E+00,+1.5314463E+00
-1.2571875E+00,+1.5301900E+00
-1.2568750E+00,+1.5289337E+00
-1.2565625E+00,+1.5301900E+00
-1.2562500E+00,+1.5289337E+00
-1.2559375E+00,+1.5289337E+00
-1.2556250E+00,+1.5289337E+00
-1.2553125E+00,+1.5289337E+00
-1.2550000E+00,+1.5289337E+00
-1.2546875E+00,+1.5264212E+00
-1.2543750E+00,+1.5276774E+00
-1.2540625E+00,+1.5264212E+00
-1.2537500E+00,+1.5264212E+00
-1.2534375E+00,+1.5251649E+00
-1.2531250E+00,+1.5251649E+00
-1.2528125E+00,+1.5251649E+00
-1.2525000E+00,+1.5239086E+00
-1.2521875E+00,+1.5239086E+00
-1.2518750E+00,+1.5239086E+00
-1.2515625E+00,+1.5239086E+00
-1.2512500E+00,+1.5239086E+00
-1.2509375E+00,+1.5226523E+00
-1.2506250E+00,+1.5239086E+00
-1.2503125E+00,+1.5226523E+00
-1.2500000E+00,+1.5213960E+00
-1.2496875E+00,+1.5213960E+00
-1.2493750E+00,+1.5213960E+00
-1.2490625E+00,+1.5226523E+00
