x-axis,1
second,Volt
-500.0000E-03,+1.7224011E+00
-499.8000E-03,+1.7208935E+00
-499.6000E-03,+1.7198885E+00
-499.4000E-03,+1.7191347E+00
-499.2000E-03,+1.7186322E+00
-499.0000E-03,+1.7173759E+00
-498.8000E-03,+1.7161197E+00
-498.6000E-03,+1.7148634E+00
-498.4000E-03,+1.7136071E+00
-498.2000E-03,+1.7123508E+00
-498.0000E-03,+1.7110945E+00
-497.8000E-03,+1.7098383E+00
-497.6000E-03,+1.7085820E+00
-497.4000E-03,+1.7085820E+00
-497.2000E-03,+1.7060694E+00
-497.0000E-03,+1.7048131E+00
-496.8000E-03,+1.7045619E+00
-496.6000E-03,+1.7035568E+00
-496.4000E-03,+1.7023006E+00
-496.2000E-03,+1.7012955E+00
-496.0000E-03,+1.6985317E+00
-495.8000E-03,+1.6995367E+00
-495.6000E-03,+1.6977780E+00
-495.4000E-03,+1.6977780E+00
-495.2000E-03,+1.6972754E+00
-495.0000E-03,+1.6960192E+00
-494.8000E-03,+1.6935066E+00
-494.6000E-03,+1.6927528E+00
-494.4000E-03,+1.6902403E+00
-494.2000E-03,+1.6899890E+00
-494.0000E-03,+1.6897377E+00
-493.8000E-03,+1.6884815E+00
-493.6000E-03,+1.6872252E+00
-493.4000E-03,+1.6859689E+00
-493.2000E-03,+1.6849639E+00
-493.0000E-03,+1.6847126E+00
-492.8000E-03,+1.6834563E+00
-492.6000E-03,+1.6822001E+00
-492.4000E-03,+1.6809438E+00
-492.2000E-03,+1.6799388E+00
-492.0000E-03,+1.6784312E+00
-491.8000E-03,+1.6774262E+00
-491.6000E-03,+1.6759187E+00
-491.4000E-03,+1.6759187E+00
-491.2000E-03,+1.6759187E+00
-491.0000E-03,+1.6746624E+00
-490.8000E-03,+1.6721498E+00
-490.6000E-03,+1.6708935E+00
-490.4000E-03,+1.6701398E+00
-490.2000E-03,+1.6683810E+00
-490.0000E-03,+1.6683810E+00
-489.8000E-03,+1.6658684E+00
-489.6000E-03,+1.6646121E+00
-489.4000E-03,+1.6633558E+00
-489.2000E-03,+1.6620996E+00
-489.0000E-03,+1.6620996E+00
-488.8000E-03,+1.6608433E+00
-488.6000E-03,+1.6600895E+00
-488.4000E-03,+1.6595870E+00
-488.2000E-03,+1.6583307E+00
-488.0000E-03,+1.6570744E+00
-487.8000E-03,+1.6560694E+00
-487.6000E-03,+1.6565719E+00
-487.4000E-03,+1.6545619E+00
-487.2000E-03,+1.6535568E+00
-487.0000E-03,+1.6520493E+00
-486.8000E-03,+1.6520493E+00
-486.6000E-03,+1.6502905E+00
-486.4000E-03,+1.6490342E+00
-486.2000E-03,+1.6482805E+00
-486.0000E-03,+1.6470242E+00
-485.8000E-03,+1.6455166E+00
-485.6000E-03,+1.6445116E+00
-485.4000E-03,+1.6437579E+00
-485.2000E-03,+1.6419991E+00
-485.0000E-03,+1.6419991E+00
-484.8000E-03,+1.6407428E+00
-484.6000E-03,+1.6394865E+00
-484.4000E-03,+1.6382302E+00
-484.2000E-03,+1.6372252E+00
-484.0000E-03,+1.6369739E+00
-483.8000E-03,+1.6354664E+00
-483.6000E-03,+1.6337076E+00
-483.4000E-03,+1.6332051E+00
-483.2000E-03,+1.6332051E+00
-483.0000E-03,+1.6306925E+00
-482.8000E-03,+1.6294362E+00
-482.6000E-03,+1.6281800E+00
-482.4000E-03,+1.6274262E+00
-482.2000E-03,+1.6269237E+00
-482.0000E-03,+1.6256674E+00
-481.8000E-03,+1.6234061E+00
-481.6000E-03,+1.6231548E+00
-481.4000E-03,+1.6211448E+00
-481.2000E-03,+1.6218986E+00
-481.0000E-03,+1.6218986E+00
-480.8000E-03,+1.6203910E+00
-480.6000E-03,+1.6193860E+00
-480.4000E-03,+1.6181297E+00
-480.2000E-03,+1.6171247E+00
-480.0000E-03,+1.6156171E+00
-479.8000E-03,+1.6143609E+00
-479.6000E-03,+1.6131046E+00
-479.4000E-03,+1.6123508E+00
-479.2000E-03,+1.6108433E+00
-479.0000E-03,+1.6105920E+00
-478.8000E-03,+1.6093357E+00
-478.6000E-03,+1.6080795E+00
-478.4000E-03,+1.6068232E+00
-478.2000E-03,+1.6055669E+00
-478.0000E-03,+1.6055669E+00
-477.8000E-03,+1.6040594E+00
-477.6000E-03,+1.6025518E+00
-477.4000E-03,+1.6005418E+00
-477.2000E-03,+1.6005418E+00
-477.0000E-03,+1.5992855E+00
-476.8000E-03,+1.5977780E+00
-476.6000E-03,+1.5972754E+00
-476.4000E-03,+1.5967729E+00
-476.2000E-03,+1.5955166E+00
-476.0000E-03,+1.5942604E+00
-475.8000E-03,+1.5930041E+00
-475.6000E-03,+1.5925016E+00
-475.4000E-03,+1.5904915E+00
-475.2000E-03,+1.5892352E+00
-475.0000E-03,+1.5892352E+00
-474.8000E-03,+1.5869739E+00
-474.6000E-03,+1.5867227E+00
-474.4000E-03,+1.5859689E+00
-474.2000E-03,+1.5854664E+00
-474.0000E-03,+1.5842101E+00
-473.8000E-03,+1.5827026E+00
-473.6000E-03,+1.5811950E+00
-473.4000E-03,+1.5809438E+00
-473.2000E-03,+1.5791850E+00
-473.0000E-03,+1.5779287E+00
-472.8000E-03,+1.5779287E+00
-472.6000E-03,+1.5779287E+00
-472.4000E-03,+1.5771749E+00
-472.2000E-03,+1.5766724E+00
-472.0000E-03,+1.5754161E+00
-471.8000E-03,+1.5751649E+00
-471.6000E-03,+1.5736573E+00
-471.4000E-03,+1.5716473E+00
-471.2000E-03,+1.5706423E+00
-471.0000E-03,+1.5703910E+00
-470.8000E-03,+1.5691347E+00
-470.6000E-03,+1.5683810E+00
-470.4000E-03,+1.5678785E+00
-470.2000E-03,+1.5671247E+00
-470.0000E-03,+1.5666222E+00
-469.8000E-03,+1.5643609E+00
-469.6000E-03,+1.5648634E+00
-469.4000E-03,+1.5633558E+00
-469.2000E-03,+1.5628533E+00
-469.0000E-03,+1.5615970E+00
-468.8000E-03,+1.5615970E+00
-468.6000E-03,+1.5610945E+00
-468.4000E-03,+1.5603408E+00
-468.2000E-03,+1.5590845E+00
-468.0000E-03,+1.5590845E+00
-467.8000E-03,+1.5588332E+00
-467.6000E-03,+1.5578282E+00
-467.4000E-03,+1.5578282E+00
-467.2000E-03,+1.5565719E+00
-467.0000E-03,+1.5553156E+00
-466.8000E-03,+1.5555669E+00
-466.6000E-03,+1.5553156E+00
-466.4000E-03,+1.5548131E+00
-466.2000E-03,+1.5540594E+00
-466.0000E-03,+1.5528031E+00
-465.8000E-03,+1.5515468E+00
-465.6000E-03,+1.5515468E+00
-465.4000E-03,+1.5515468E+00
-465.2000E-03,+1.5492855E+00
-465.0000E-03,+1.5490342E+00
-464.8000E-03,+1.5487830E+00
-464.6000E-03,+1.5490342E+00
-464.4000E-03,+1.5477780E+00
-464.2000E-03,+1.5477780E+00
-464.0000E-03,+1.5465217E+00
-463.8000E-03,+1.5455166E+00
-463.6000E-03,+1.5452654E+00
-463.4000E-03,+1.5440091E+00
-463.2000E-03,+1.5437579E+00
-463.0000E-03,+1.5427528E+00
-462.8000E-03,+1.5414965E+00
-462.6000E-03,+1.5419991E+00
-462.4000E-03,+1.5414965E+00
-462.2000E-03,+1.5414965E+00
-462.0000E-03,+1.5402403E+00
-461.8000E-03,+1.5414965E+00
-461.6000E-03,+1.5402403E+00
-461.4000E-03,+1.5402403E+00
-461.2000E-03,+1.5392352E+00
-461.0000E-03,+1.5389840E+00
-460.8000E-03,+1.5389840E+00
-460.6000E-03,+1.5382302E+00
-460.4000E-03,+1.5377277E+00
-460.2000E-03,+1.5374764E+00
-460.0000E-03,+1.5364714E+00
-459.8000E-03,+1.5364714E+00
-459.6000E-03,+1.5364714E+00
-459.4000E-03,+1.5364714E+00
-459.2000E-03,+1.5344614E+00
-459.0000E-03,+1.5352151E+00
-458.8000E-03,+1.5339589E+00
-458.6000E-03,+1.5334563E+00
-458.4000E-03,+1.5327026E+00
-458.2000E-03,+1.5327026E+00
-458.0000E-03,+1.5339589E+00
-457.8000E-03,+1.5327026E+00
-457.6000E-03,+1.5327026E+00
-457.4000E-03,+1.5314463E+00
-457.2000E-03,+1.5314463E+00
-457.0000E-03,+1.5314463E+00
-456.8000E-03,+1.5304413E+00
-456.6000E-03,+1.5301900E+00
-456.4000E-03,+1.5289337E+00
-456.2000E-03,+1.5289337E+00
-456.0000E-03,+1.5289337E+00
-455.8000E-03,+1.5289337E+00
-455.6000E-03,+1.5296875E+00
-455.4000E-03,+1.5284312E+00
-455.2000E-03,+1.5276774E+00
-455.0000E-03,+1.5276774E+00
-454.8000E-03,+1.5286825E+00
-454.6000E-03,+1.5276774E+00
-454.4000E-03,+1.5264212E+00
-454.2000E-03,+1.5264212E+00
-454.0000E-03,+1.5264212E+00
-453.8000E-03,+1.5264212E+00
-453.6000E-03,+1.5264212E+00
-453.4000E-03,+1.5251649E+00
-453.2000E-03,+1.5251649E+00
-453.0000E-03,+1.5264212E+00
-452.8000E-03,+1.5251649E+00
-452.6000E-03,+1.5269237E+00
-452.4000E-03,+1.5251649E+00
-452.2000E-03,+1.5239086E+00
-452.0000E-03,+1.5239086E+00
-451.8000E-03,+1.5239086E+00
-451.6000E-03,+1.5239086E+00
-451.4000E-03,+1.5239086E+00
-451.2000E-03,+1.5229036E+00
-451.0000E-03,+1.5239086E+00
-450.8000E-03,+1.5239086E+00
-450.6000E-03,+1.5234061E+00
-450.4000E-03,+1.5226523E+00
-450.2000E-03,+1.5229036E+00
-450.0000E-03,+1.5226523E+00
-449.8000E-03,+1.5226523E+00
-449.6000E-03,+1.5218986E+00
-449.4000E-03,+1.5218986E+00
-449.2000E-03,+1.5216473E+00
-449.0000E-03,+1.5226523E+00
-448.8000E-03,+1.5224011E+00
-448.6000E-03,+1.5213960E+00
-448.4000E-03,+1.5213960E+00
-448.2000E-03,+1.5211448E+00
-448.0000E-03,+1.5201398E+00
-447.8000E-03,+1.5211448E+00
-447.6000E-03,+1.5196372E+00
-447.4000E-03,+1.5208935E+00
-447.2000E-03,+1.5201398E+00
-447.0000E-03,+1.5201398E+00
-446.8000E-03,+1.5201398E+00
-446.6000E-03,+1.5201398E+00
-446.4000E-03,+1.5201398E+00
-446.2000E-03,+1.5191347E+00
-446.0000E-03,+1.5188835E+00
-445.8000E-03,+1.5176272E+00
-445.6000E-03,+1.5183810E+00
-445.4000E-03,+1.5188835E+00
-445.2000E-03,+1.5188835E+00
-445.0000E-03,+1.5188835E+00
-444.8000E-03,+1.5188835E+00
-444.6000E-03,+1.5176272E+00
-444.4000E-03,+1.5176272E+00
-444.2000E-03,+1.5176272E+00
-444.0000E-03,+1.5163709E+00
-443.8000E-03,+1.5176272E+00
-443.6000E-03,+1.5163709E+00
-443.4000E-03,+1.5163709E+00
-443.2000E-03,+1.5163709E+00
-443.0000E-03,+1.5163709E+00
-442.8000E-03,+1.5163709E+00
-442.6000E-03,+1.5163709E+00
-442.4000E-03,+1.5156171E+00
-442.2000E-03,+1.5153659E+00
-442.0000E-03,+1.5151146E+00
-441.8000E-03,+1.5151146E+00
-441.6000E-03,+1.5151146E+00
-441.4000E-03,+1.5151146E+00
-441.2000E-03,+1.5151146E+00
-441.0000E-03,+1.5151146E+00
-440.8000E-03,+1.5141096E+00
-440.6000E-03,+1.5151146E+00
-440.4000E-03,+1.5151146E+00
-440.2000E-03,+1.5141096E+00
-440.0000E-03,+1.5138584E+00
-439.8000E-03,+1.5138584E+00
-439.6000E-03,+1.5138584E+00
-439.4000E-03,+1.5138584E+00
-439.2000E-03,+1.5136071E+00
-439.0000E-03,+1.5126021E+00
-438.8000E-03,+1.5126021E+00
-438.6000E-03,+1.5126021E+00
-438.4000E-03,+1.5126021E+00
-438.2000E-03,+1.5126021E+00
-438.0000E-03,+1.5113458E+00
-437.8000E-03,+1.5113458E+00
-437.6000E-03,+1.5113458E+00
-437.4000E-03,+1.5108433E+00
-437.2000E-03,+1.5113458E+00
-437.0000E-03,+1.5100895E+00
-436.8000E-03,+1.5100895E+00
-436.6000E-03,+1.5100895E+00
-436.4000E-03,+1.5100895E+00
-436.2000E-03,+1.5113458E+00
-436.0000E-03,+1.5100895E+00
-435.8000E-03,+1.5098383E+00
-435.6000E-03,+1.5093357E+00
-435.4000E-03,+1.5093357E+00
-435.2000E-03,+1.5098383E+00
-435.0000E-03,+1.5100895E+00
-434.8000E-03,+1.5090845E+00
-434.6000E-03,+1.5100895E+00
-434.4000E-03,+1.5088332E+00
-434.2000E-03,+1.5088332E+00
-434.0000E-03,+1.5075769E+00
-433.8000E-03,+1.5085820E+00
-433.6000E-03,+1.5093357E+00
-433.4000E-03,+1.5075769E+00
-433.2000E-03,+1.5075769E+00
-433.0000E-03,+1.5075769E+00
-432.8000E-03,+1.5075769E+00
-432.6000E-03,+1.5083307E+00
-432.4000E-03,+1.5088332E+00
-432.2000E-03,+1.5085820E+00
-432.0000E-03,+1.5075769E+00
-431.8000E-03,+1.5075769E+00
-431.6000E-03,+1.5075769E+00
-431.4000E-03,+1.5075769E+00
-431.2000E-03,+1.5053156E+00
-431.0000E-03,+1.5063207E+00
-430.8000E-03,+1.5063207E+00
-430.6000E-03,+1.5063207E+00
-430.4000E-03,+1.5063207E+00
-430.2000E-03,+1.5063207E+00
-430.0000E-03,+1.5075769E+00
-429.8000E-03,+1.5075769E+00
-429.6000E-03,+1.5063207E+00
-429.4000E-03,+1.5063207E+00
-429.2000E-03,+1.5063207E+00
-429.0000E-03,+1.5050644E+00
-428.8000E-03,+1.5053156E+00
-428.6000E-03,+1.5063207E+00
-428.4000E-03,+1.5063207E+00
-428.2000E-03,+1.5063207E+00
-428.0000E-03,+1.5050644E+00
-427.8000E-03,+1.5063207E+00
-427.6000E-03,+1.5058182E+00
-427.4000E-03,+1.5055669E+00
-427.2000E-03,+1.5050644E+00
-427.0000E-03,+1.5050644E+00
-426.8000E-03,+1.5040594E+00
-426.6000E-03,+1.5050644E+00
-426.4000E-03,+1.5050644E+00
-426.2000E-03,+1.5050644E+00
-426.0000E-03,+1.5050644E+00
-425.8000E-03,+1.5063207E+00
-425.6000E-03,+1.5050644E+00
-425.4000E-03,+1.5050644E+00
-425.2000E-03,+1.5040594E+00
-425.0000E-03,+1.5050644E+00
-424.8000E-03,+1.5050644E+00
-424.6000E-03,+1.5050644E+00
-424.4000E-03,+1.5050644E+00
-424.2000E-03,+1.5053156E+00
-424.0000E-03,+1.5038081E+00
-423.8000E-03,+1.5050644E+00
-423.6000E-03,+1.5050644E+00
-423.4000E-03,+1.5043106E+00
-423.2000E-03,+1.5050644E+00
-423.0000E-03,+1.5050644E+00
-422.8000E-03,+1.5038081E+00
-422.6000E-03,+1.5038081E+00
-422.4000E-03,+1.5045619E+00
-422.2000E-03,+1.5040594E+00
-422.0000E-03,+1.5050644E+00
-421.8000E-03,+1.5048131E+00
-421.6000E-03,+1.5050644E+00
-421.4000E-03,+1.5050644E+00
-421.2000E-03,+1.5050644E+00
-421.0000E-03,+1.5050644E+00
-420.8000E-03,+1.5050644E+00
-420.6000E-03,+1.5043106E+00
-420.4000E-03,+1.5045619E+00
-420.2000E-03,+1.5048131E+00
-420.0000E-03,+1.5050644E+00
-419.8000E-03,+1.5050644E+00
-419.6000E-03,+1.5050644E+00
-419.4000E-03,+1.5050644E+00
-419.2000E-03,+1.5050644E+00
-419.0000E-03,+1.5050644E+00
-418.8000E-03,+1.5038081E+00
-418.6000E-03,+1.5038081E+00
-418.4000E-03,+1.5045619E+00
-418.2000E-03,+1.5040594E+00
-418.0000E-03,+1.5050644E+00
-417.8000E-03,+1.5050644E+00
-417.6000E-03,+1.5050644E+00
-417.4000E-03,+1.5050644E+00
-417.2000E-03,+1.5050644E+00
-417.0000E-03,+1.5050644E+00
-416.8000E-03,+1.5048131E+00
-416.6000E-03,+1.5050644E+00
-416.4000E-03,+1.5045619E+00
-416.2000E-03,+1.5050644E+00
-416.0000E-03,+1.5050644E+00
-415.8000E-03,+1.5050644E+00
-415.6000E-03,+1.5050644E+00
-415.4000E-03,+1.5053156E+00
-415.2000E-03,+1.5050644E+00
-415.0000E-03,+1.5063207E+00
-414.8000E-03,+1.5050644E+00
-414.6000E-03,+1.5050644E+00
-414.4000E-03,+1.5050644E+00
-414.2000E-03,+1.5050644E+00
-414.0000E-03,+1.5050644E+00
-413.8000E-03,+1.5050644E+00
-413.6000E-03,+1.5050644E+00
-413.4000E-03,+1.5050644E+00
-413.2000E-03,+1.5050644E+00
-413.0000E-03,+1.5050644E+00
-412.8000E-03,+1.5050644E+00
-412.6000E-03,+1.5050644E+00
-412.4000E-03,+1.5050644E+00
-412.2000E-03,+1.5048131E+00
-412.0000E-03,+1.5050644E+00
-411.8000E-03,+1.5038081E+00
-411.6000E-03,+1.5050644E+00
-411.4000E-03,+1.5043106E+00
-411.2000E-03,+1.5050644E+00
-411.0000E-03,+1.5050644E+00
-410.8000E-03,+1.5048131E+00
-410.6000E-03,+1.5038081E+00
-410.4000E-03,+1.5045619E+00
-410.2000E-03,+1.5048131E+00
-410.0000E-03,+1.5038081E+00
-409.8000E-03,+1.5040594E+00
-409.6000E-03,+1.5050644E+00
-409.4000E-03,+1.5055669E+00
-409.2000E-03,+1.5050644E+00
-409.0000E-03,+1.5050644E+00
-408.8000E-03,+1.5050644E+00
-408.6000E-03,+1.5050644E+00
-408.4000E-03,+1.5050644E+00
-408.2000E-03,+1.5050644E+00
-408.0000E-03,+1.5038081E+00
-407.8000E-03,+1.5050644E+00
-407.6000E-03,+1.5050644E+00
-407.4000E-03,+1.5055669E+00
-407.2000E-03,+1.5050644E+00
-407.0000E-03,+1.5050644E+00
-406.8000E-03,+1.5050644E+00
-406.6000E-03,+1.5050644E+00
-406.4000E-03,+1.5038081E+00
-406.2000E-03,+1.5050644E+00
-406.0000E-03,+1.5050644E+00
-405.8000E-03,+1.5050644E+00
-405.6000E-03,+1.5050644E+00
-405.4000E-03,+1.5050644E+00
-405.2000E-03,+1.5050644E+00
-405.0000E-03,+1.5050644E+00
-404.8000E-03,+1.5050644E+00
-404.6000E-03,+1.5050644E+00
-404.4000E-03,+1.5050644E+00
-404.2000E-03,+1.5050644E+00
-404.0000E-03,+1.5050644E+00
-403.8000E-03,+1.5050644E+00
-403.6000E-03,+1.5038081E+00
-403.4000E-03,+1.5045619E+00
-403.2000E-03,+1.5050644E+00
-403.0000E-03,+1.5050644E+00
-402.8000E-03,+1.5050644E+00
-402.6000E-03,+1.5050644E+00
-402.4000E-03,+1.5043106E+00
-402.2000E-03,+1.5050644E+00
-402.0000E-03,+1.5038081E+00
-401.8000E-03,+1.5048131E+00
-401.6000E-03,+1.5045619E+00
-401.4000E-03,+1.5050644E+00
-401.2000E-03,+1.5050644E+00
-401.0000E-03,+1.5050644E+00
-400.8000E-03,+1.5040594E+00
-400.6000E-03,+1.5050644E+00
-400.4000E-03,+1.5050644E+00
-400.2000E-03,+1.5050644E+00
-400.0000E-03,+1.5050644E+00
-399.8000E-03,+1.5050644E+00
-399.6000E-03,+1.5045619E+00
-399.4000E-03,+1.5043106E+00
-399.2000E-03,+1.5048131E+00
-399.0000E-03,+1.5050644E+00
-398.8000E-03,+1.5050644E+00
-398.6000E-03,+1.5050644E+00
-398.4000E-03,+1.5050644E+00
-398.2000E-03,+1.5050644E+00
-398.0000E-03,+1.5063207E+00
-397.8000E-03,+1.5050644E+00
-397.6000E-03,+1.5045619E+00
-397.4000E-03,+1.5050644E+00
-397.2000E-03,+1.5050644E+00
-397.0000E-03,+1.5050644E+00
-396.8000E-03,+1.5050644E+00
-396.6000E-03,+1.5050644E+00
-396.4000E-03,+1.5063207E+00
-396.2000E-03,+1.5053156E+00
-396.0000E-03,+1.5050644E+00
-395.8000E-03,+1.5050644E+00
-395.6000E-03,+1.5050644E+00
-395.4000E-03,+1.5063207E+00
-395.2000E-03,+1.5050644E+00
-395.0000E-03,+1.5050644E+00
-394.8000E-03,+1.5050644E+00
-394.6000E-03,+1.5050644E+00
-394.4000E-03,+1.5055669E+00
-394.2000E-03,+1.5050644E+00
-394.0000E-03,+1.5050644E+00
-393.8000E-03,+1.5050644E+00
-393.6000E-03,+1.5058182E+00
-393.4000E-03,+1.5058182E+00
-393.2000E-03,+1.5050644E+00
-393.0000E-03,+1.5050644E+00
-392.8000E-03,+1.5050644E+00
-392.6000E-03,+1.5055669E+00
-392.4000E-03,+1.5050644E+00
-392.2000E-03,+1.5050644E+00
-392.0000E-03,+1.5050644E+00
-391.8000E-03,+1.5050644E+00
-391.6000E-03,+1.5050644E+00
-391.4000E-03,+1.5050644E+00
-391.2000E-03,+1.5050644E+00
-391.0000E-03,+1.5050644E+00
-390.8000E-03,+1.5050644E+00
-390.6000E-03,+1.5050644E+00
-390.4000E-03,+1.5050644E+00
-390.2000E-03,+1.5060694E+00
-390.0000E-03,+1.5063207E+00
-389.8000E-03,+1.5050644E+00
-389.6000E-03,+1.5043106E+00
-389.4000E-03,+1.5038081E+00
-389.2000E-03,+1.5050644E+00
-389.0000E-03,+1.5050644E+00
-388.8000E-03,+1.5040594E+00
-388.6000E-03,+1.5058182E+00
-388.4000E-03,+1.5055669E+00
-388.2000E-03,+1.5053156E+00
-388.0000E-03,+1.5038081E+00
-387.8000E-03,+1.5050644E+00
-387.6000E-03,+1.5050644E+00
-387.4000E-03,+1.5050644E+00
-387.2000E-03,+1.5050644E+00
-387.0000E-03,+1.5050644E+00
-386.8000E-03,+1.5050644E+00
-386.6000E-03,+1.5050644E+00
-386.4000E-03,+1.5055669E+00
-386.2000E-03,+1.5050644E+00
-386.0000E-03,+1.5063207E+00
-385.8000E-03,+1.5053156E+00
-385.6000E-03,+1.5058182E+00
-385.4000E-03,+1.5050644E+00
-385.2000E-03,+1.5050644E+00
-385.0000E-03,+1.5050644E+00
-384.8000E-03,+1.5060694E+00
-384.6000E-03,+1.5050644E+00
-384.4000E-03,+1.5050644E+00
-384.2000E-03,+1.5063207E+00
-384.0000E-03,+1.5050644E+00
-383.8000E-03,+1.5063207E+00
-383.6000E-03,+1.5050644E+00
-383.4000E-03,+1.5058182E+00
-383.2000E-03,+1.5050644E+00
-383.0000E-03,+1.5050644E+00
-382.8000E-03,+1.5050644E+00
-382.6000E-03,+1.5050644E+00
-382.4000E-03,+1.5058182E+00
-382.2000E-03,+1.5063207E+00
-382.0000E-03,+1.5050644E+00
-381.8000E-03,+1.5050644E+00
-381.6000E-03,+1.5058182E+00
-381.4000E-03,+1.5050644E+00
-381.2000E-03,+1.5050644E+00
-381.0000E-03,+1.5050644E+00
-380.8000E-03,+1.5050644E+00
-380.6000E-03,+1.5043106E+00
-380.4000E-03,+1.5055669E+00
-380.2000E-03,+1.5050644E+00
-380.0000E-03,+1.5050644E+00
-379.8000E-03,+1.5050644E+00
-379.6000E-03,+1.5050644E+00
-379.4000E-03,+1.5050644E+00
-379.2000E-03,+1.5050644E+00
-379.0000E-03,+1.5050644E+00
-378.8000E-03,+1.5050644E+00
-378.6000E-03,+1.5050644E+00
-378.4000E-03,+1.5043106E+00
-378.2000E-03,+1.5060694E+00
-378.0000E-03,+1.5050644E+00
-377.8000E-03,+1.5040594E+00
-377.6000E-03,+1.5055669E+00
-377.4000E-03,+1.5050644E+00
-377.2000E-03,+1.5060694E+00
-377.0000E-03,+1.5063207E+00
-376.8000E-03,+1.5050644E+00
-376.6000E-03,+1.5050644E+00
-376.4000E-03,+1.5050644E+00
-376.2000E-03,+1.5050644E+00
-376.0000E-03,+1.5050644E+00
-375.8000E-03,+1.5050644E+00
-375.6000E-03,+1.5055669E+00
-375.4000E-03,+1.5055669E+00
-375.2000E-03,+1.5038081E+00
-375.0000E-03,+1.5050644E+00
-374.8000E-03,+1.5040594E+00
-374.6000E-03,+1.5045619E+00
-374.4000E-03,+1.5050644E+00
-374.2000E-03,+1.5050644E+00
-374.0000E-03,+1.5063207E+00
-373.8000E-03,+1.5060694E+00
-373.6000E-03,+1.5050644E+00
-373.4000E-03,+1.5050644E+00
-373.2000E-03,+1.5050644E+00
-373.0000E-03,+1.5050644E+00
-372.8000E-03,+1.5050644E+00
-372.6000E-03,+1.5050644E+00
-372.4000E-03,+1.5045619E+00
-372.2000E-03,+1.5050644E+00
-372.0000E-03,+1.5050644E+00
-371.8000E-03,+1.5050644E+00
-371.6000E-03,+1.5050644E+00
-371.4000E-03,+1.5050644E+00
-371.2000E-03,+1.5060694E+00
-371.0000E-03,+1.5050644E+00
-370.8000E-03,+1.5060694E+00
-370.6000E-03,+1.5050644E+00
-370.4000E-03,+1.5045619E+00
-370.2000E-03,+1.5050644E+00
-370.0000E-03,+1.5050644E+00
-369.8000E-03,+1.5050644E+00
-369.6000E-03,+1.5055669E+00
-369.4000E-03,+1.5050644E+00
-369.2000E-03,+1.5050644E+00
-369.0000E-03,+1.5050644E+00
-368.8000E-03,+1.5050644E+00
-368.6000E-03,+1.5055669E+00
-368.4000E-03,+1.5050644E+00
-368.2000E-03,+1.5050644E+00
-368.0000E-03,+1.5050644E+00
-367.8000E-03,+1.5038081E+00
-367.6000E-03,+1.5050644E+00
-367.4000E-03,+1.5050644E+00
-367.2000E-03,+1.5048131E+00
-367.0000E-03,+1.5050644E+00
-366.8000E-03,+1.5050644E+00
-366.6000E-03,+1.5043106E+00
-366.4000E-03,+1.5050644E+00
-366.2000E-03,+1.5040594E+00
-366.0000E-03,+1.5038081E+00
-365.8000E-03,+1.5040594E+00
-365.6000E-03,+1.5063207E+00
-365.4000E-03,+1.5050644E+00
-365.2000E-03,+1.5050644E+00
-365.0000E-03,+1.5050644E+00
-364.8000E-03,+1.5050644E+00
-364.6000E-03,+1.5050644E+00
-364.4000E-03,+1.5050644E+00
-364.2000E-03,+1.5048131E+00
-364.0000E-03,+1.5038081E+00
-363.8000E-03,+1.5050644E+00
-363.6000E-03,+1.5058182E+00
-363.4000E-03,+1.5050644E+00
-363.2000E-03,+1.5050644E+00
-363.0000E-03,+1.5050644E+00
-362.8000E-03,+1.5050644E+00
-362.6000E-03,+1.5050644E+00
-362.4000E-03,+1.5050644E+00
-362.2000E-03,+1.5050644E+00
-362.0000E-03,+1.5050644E+00
-361.8000E-03,+1.5038081E+00
-361.6000E-03,+1.5050644E+00
-361.4000E-03,+1.5050644E+00
-361.2000E-03,+1.5050644E+00
-361.0000E-03,+1.5050644E+00
-360.8000E-03,+1.5050644E+00
-360.6000E-03,+1.5050644E+00
-360.4000E-03,+1.5050644E+00
-360.2000E-03,+1.5050644E+00
-360.0000E-03,+1.5050644E+00
-359.8000E-03,+1.5050644E+00
-359.6000E-03,+1.5045619E+00
-359.4000E-03,+1.5050644E+00
-359.2000E-03,+1.5050644E+00
-359.0000E-03,+1.5050644E+00
-358.8000E-03,+1.5050644E+00
-358.6000E-03,+1.5050644E+00
-358.4000E-03,+1.5045619E+00
-358.2000E-03,+1.5048131E+00
-358.0000E-03,+1.5050644E+00
-357.8000E-03,+1.5053156E+00
-357.6000E-03,+1.5050644E+00
-357.4000E-03,+1.5055669E+00
-357.2000E-03,+1.5050644E+00
-357.0000E-03,+1.5050644E+00
-356.8000E-03,+1.5050644E+00
-356.6000E-03,+1.5050644E+00
-356.4000E-03,+1.5050644E+00
-356.2000E-03,+1.5053156E+00
-356.0000E-03,+1.5050644E+00
-355.8000E-03,+1.5050644E+00
-355.6000E-03,+1.5050644E+00
-355.4000E-03,+1.5045619E+00
-355.2000E-03,+1.5050644E+00
-355.0000E-03,+1.5050644E+00
-354.8000E-03,+1.5050644E+00
-354.6000E-03,+1.5050644E+00
-354.4000E-03,+1.5058182E+00
-354.2000E-03,+1.5060694E+00
-354.0000E-03,+1.5050644E+00
-353.8000E-03,+1.5060694E+00
-353.6000E-03,+1.5050644E+00
-353.4000E-03,+1.5050644E+00
-353.2000E-03,+1.5050644E+00
-353.0000E-03,+1.5050644E+00
-352.8000E-03,+1.5050644E+00
-352.6000E-03,+1.5050644E+00
-352.4000E-03,+1.5058182E+00
-352.2000E-03,+1.5050644E+00
-352.0000E-03,+1.5050644E+00
-351.8000E-03,+1.5060694E+00
-351.6000E-03,+1.5050644E+00
-351.4000E-03,+1.5050644E+00
-351.2000E-03,+1.5050644E+00
-351.0000E-03,+1.5050644E+00
-350.8000E-03,+1.5063207E+00
-350.6000E-03,+1.5050644E+00
-350.4000E-03,+1.5050644E+00
-350.2000E-03,+1.5048131E+00
-350.0000E-03,+1.5050644E+00
-349.8000E-03,+1.5050644E+00
-349.6000E-03,+1.5050644E+00
-349.4000E-03,+1.5050644E+00
-349.2000E-03,+1.5050644E+00
-349.0000E-03,+1.5038081E+00
-348.8000E-03,+1.5050644E+00
-348.6000E-03,+1.5050644E+00
-348.4000E-03,+1.5058182E+00
-348.2000E-03,+1.5050644E+00
-348.0000E-03,+1.5050644E+00
-347.8000E-03,+1.5038081E+00
-347.6000E-03,+1.5050644E+00
-347.4000E-03,+1.5050644E+00
-347.2000E-03,+1.5050644E+00
-347.0000E-03,+1.5038081E+00
-346.8000E-03,+1.5050644E+00
-346.6000E-03,+1.5050644E+00
-346.4000E-03,+1.5050644E+00
-346.2000E-03,+1.5050644E+00
-346.0000E-03,+1.5063207E+00
-345.8000E-03,+1.5063207E+00
-345.6000E-03,+1.5055669E+00
-345.4000E-03,+1.5055669E+00
-345.2000E-03,+1.5050644E+00
-345.0000E-03,+1.5063207E+00
-344.8000E-03,+1.5050644E+00
-344.6000E-03,+1.5050644E+00
-344.4000E-03,+1.5058182E+00
-344.2000E-03,+1.5053156E+00
-344.0000E-03,+1.5050644E+00
-343.8000E-03,+1.5050644E+00
-343.6000E-03,+1.5050644E+00
-343.4000E-03,+1.5045619E+00
-343.2000E-03,+1.5050644E+00
-343.0000E-03,+1.5050644E+00
-342.8000E-03,+1.5060694E+00
-342.6000E-03,+1.5063207E+00
-342.4000E-03,+1.5063207E+00
-342.2000E-03,+1.5050644E+00
-342.0000E-03,+1.5050644E+00
-341.8000E-03,+1.5040594E+00
-341.6000E-03,+1.5043106E+00
-341.4000E-03,+1.5050644E+00
-341.2000E-03,+1.5050644E+00
-341.0000E-03,+1.5050644E+00
-340.8000E-03,+1.5050644E+00
-340.6000E-03,+1.5038081E+00
-340.4000E-03,+1.5050644E+00
-340.2000E-03,+1.5050644E+00
-340.0000E-03,+1.5050644E+00
-339.8000E-03,+1.5050644E+00
-339.6000E-03,+1.5050644E+00
-339.4000E-03,+1.5050644E+00
-339.2000E-03,+1.5048131E+00
-339.0000E-03,+1.5038081E+00
-338.8000E-03,+1.5040594E+00
-338.6000E-03,+1.5043106E+00
-338.4000E-03,+1.5043106E+00
-338.2000E-03,+1.5060694E+00
-338.0000E-03,+1.5050644E+00
-337.8000E-03,+1.5050644E+00
-337.6000E-03,+1.5050644E+00
-337.4000E-03,+1.5038081E+00
-337.2000E-03,+1.5050644E+00
-337.0000E-03,+1.5050644E+00
-336.8000E-03,+1.5050644E+00
-336.6000E-03,+1.5050644E+00
-336.4000E-03,+1.5050644E+00
-336.2000E-03,+1.5048131E+00
-336.0000E-03,+1.5038081E+00
-335.8000E-03,+1.5040594E+00
-335.6000E-03,+1.5050644E+00
-335.4000E-03,+1.5050644E+00
-335.2000E-03,+1.5050644E+00
-335.0000E-03,+1.5038081E+00
-334.8000E-03,+1.5050644E+00
-334.6000E-03,+1.5050644E+00
-334.4000E-03,+1.5038081E+00
-334.2000E-03,+1.5050644E+00
-334.0000E-03,+1.5050644E+00
-333.8000E-03,+1.5050644E+00
-333.6000E-03,+1.5050644E+00
-333.4000E-03,+1.5045619E+00
-333.2000E-03,+1.5050644E+00
-333.0000E-03,+1.5050644E+00
-332.8000E-03,+1.5050644E+00
-332.6000E-03,+1.5050644E+00
-332.4000E-03,+1.5050644E+00
-332.2000E-03,+1.5050644E+00
-332.0000E-03,+1.5063207E+00
-331.8000E-03,+1.5050644E+00
-331.6000E-03,+1.5063207E+00
-331.4000E-03,+1.5050644E+00
-331.2000E-03,+1.5040594E+00
-331.0000E-03,+1.5050644E+00
-330.8000E-03,+1.5050644E+00
-330.6000E-03,+1.5045619E+00
-330.4000E-03,+1.5050644E+00
-330.2000E-03,+1.5050644E+00
-330.0000E-03,+1.5050644E+00
-329.8000E-03,+1.5050644E+00
-329.6000E-03,+1.5050644E+00
-329.4000E-03,+1.5050644E+00
-329.2000E-03,+1.5060694E+00
-329.0000E-03,+1.5050644E+00
-328.8000E-03,+1.5038081E+00
-328.6000E-03,+1.5038081E+00
-328.4000E-03,+1.5045619E+00
-328.2000E-03,+1.5050644E+00
-328.0000E-03,+1.5038081E+00
-327.8000E-03,+1.5038081E+00
-327.6000E-03,+1.5050644E+00
-327.4000E-03,+1.5038081E+00
-327.2000E-03,+1.5048131E+00
-327.0000E-03,+1.5050644E+00
-326.8000E-03,+1.5048131E+00
-326.6000E-03,+1.5045619E+00
-326.4000E-03,+1.5038081E+00
-326.2000E-03,+1.5050644E+00
-326.0000E-03,+1.5050644E+00
-325.8000E-03,+1.5050644E+00
-325.6000E-03,+1.5050644E+00
-325.4000E-03,+1.5050644E+00
-325.2000E-03,+1.5050644E+00
-325.0000E-03,+1.5038081E+00
-324.8000E-03,+1.5050644E+00
-324.6000E-03,+1.5050644E+00
-324.4000E-03,+1.5038081E+00
-324.2000E-03,+1.5050644E+00
-324.0000E-03,+1.5050644E+00
-323.8000E-03,+1.5050644E+00
-323.6000E-03,+1.5050644E+00
-323.4000E-03,+1.5050644E+00
-323.2000E-03,+1.5050644E+00
-323.0000E-03,+1.5038081E+00
-322.8000E-03,+1.5050644E+00
-322.6000E-03,+1.5050644E+00
-322.4000E-03,+1.5050644E+00
-322.2000E-03,+1.5050644E+00
-322.0000E-03,+1.5038081E+00
-321.8000E-03,+1.5053156E+00
-321.6000E-03,+1.5050644E+00
-321.4000E-03,+1.5058182E+00
-321.2000E-03,+1.5050644E+00
-321.0000E-03,+1.5050644E+00
-320.8000E-03,+1.5050644E+00
-320.6000E-03,+1.5050644E+00
-320.4000E-03,+1.5050644E+00
-320.2000E-03,+1.5050644E+00
-320.0000E-03,+1.5050644E+00
-319.8000E-03,+1.5060694E+00
-319.6000E-03,+1.5050644E+00
-319.4000E-03,+1.5050644E+00
-319.2000E-03,+1.5060694E+00
-319.0000E-03,+1.5050644E+00
-318.8000E-03,+1.5050644E+00
-318.6000E-03,+1.5058182E+00
-318.4000E-03,+1.5063207E+00
-318.2000E-03,+1.5050644E+00
-318.0000E-03,+1.5050644E+00
-317.8000E-03,+1.5050644E+00
-317.6000E-03,+1.5055669E+00
-317.4000E-03,+1.5050644E+00
-317.2000E-03,+1.5063207E+00
-317.0000E-03,+1.5063207E+00
-316.8000E-03,+1.5050644E+00
-316.6000E-03,+1.5058182E+00
-316.4000E-03,+1.5050644E+00
-316.2000E-03,+1.5048131E+00
-316.0000E-03,+1.5050644E+00
-315.8000E-03,+1.5038081E+00
-315.6000E-03,+1.5043106E+00
-315.4000E-03,+1.5050644E+00
-315.2000E-03,+1.5050644E+00
-315.0000E-03,+1.5050644E+00
-314.8000E-03,+1.5050644E+00
-314.6000E-03,+1.5050644E+00
-314.4000E-03,+1.5050644E+00
-314.2000E-03,+1.5048131E+00
-314.0000E-03,+1.5038081E+00
-313.8000E-03,+1.5050644E+00
-313.6000E-03,+1.5050644E+00
-313.4000E-03,+1.5038081E+00
-313.2000E-03,+1.5050644E+00
-313.0000E-03,+1.5050644E+00
-312.8000E-03,+1.5050644E+00
-312.6000E-03,+1.5050644E+00
-312.4000E-03,+1.5050644E+00
-312.2000E-03,+1.5050644E+00
-312.0000E-03,+1.5050644E+00
-311.8000E-03,+1.5060694E+00
-311.6000E-03,+1.5050644E+00
-311.4000E-03,+1.5058182E+00
-311.2000E-03,+1.5060694E+00
-311.0000E-03,+1.5063207E+00
-310.8000E-03,+1.5050644E+00
-310.6000E-03,+1.5050644E+00
-310.4000E-03,+1.5050644E+00
-310.2000E-03,+1.5050644E+00
-310.0000E-03,+1.5050644E+00
-309.8000E-03,+1.5050644E+00
-309.6000E-03,+1.5050644E+00
-309.4000E-03,+1.5043106E+00
-309.2000E-03,+1.5050644E+00
-309.0000E-03,+1.5050644E+00
-308.8000E-03,+1.5053156E+00
-308.6000E-03,+1.5050644E+00
-308.4000E-03,+1.5050644E+00
-308.2000E-03,+1.5040594E+00
-308.0000E-03,+1.5050644E+00
-307.8000E-03,+1.5050644E+00
-307.6000E-03,+1.5050644E+00
-307.4000E-03,+1.5038081E+00
-307.2000E-03,+1.5048131E+00
-307.0000E-03,+1.5038081E+00
-306.8000E-03,+1.5050644E+00
-306.6000E-03,+1.5050644E+00
-306.4000E-03,+1.5043106E+00
-306.2000E-03,+1.5050644E+00
-306.0000E-03,+1.5050644E+00
-305.8000E-03,+1.5050644E+00
-305.6000E-03,+1.5063207E+00
-305.4000E-03,+1.5058182E+00
-305.2000E-03,+1.5050644E+00
-305.0000E-03,+1.5050644E+00
-304.8000E-03,+1.5053156E+00
-304.6000E-03,+1.5050644E+00
-304.4000E-03,+1.5050644E+00
-304.2000E-03,+1.5050644E+00
-304.0000E-03,+1.5050644E+00
-303.8000E-03,+1.5050644E+00
-303.6000E-03,+1.5050644E+00
-303.4000E-03,+1.5050644E+00
-303.2000E-03,+1.5050644E+00
-303.0000E-03,+1.5050644E+00
-302.8000E-03,+1.5050644E+00
-302.6000E-03,+1.5050644E+00
-302.4000E-03,+1.5055669E+00
-302.2000E-03,+1.5060694E+00
-302.0000E-03,+1.5050644E+00
-301.8000E-03,+1.5060694E+00
-301.6000E-03,+1.5050644E+00
-301.4000E-03,+1.5050644E+00
-301.2000E-03,+1.5050644E+00
-301.0000E-03,+1.5050644E+00
-300.8000E-03,+1.5053156E+00
-300.6000E-03,+1.5050644E+00
-300.4000E-03,+1.5050644E+00
-300.2000E-03,+1.5050644E+00
-300.0000E-03,+1.5063207E+00
-299.8000E-03,+1.5060694E+00
-299.6000E-03,+1.5050644E+00
-299.4000E-03,+1.5050644E+00
-299.2000E-03,+1.5040594E+00
-299.0000E-03,+1.5050644E+00
-298.8000E-03,+1.5050644E+00
-298.6000E-03,+1.5050644E+00
-298.4000E-03,+1.5050644E+00
-298.2000E-03,+1.5063207E+00
-298.0000E-03,+1.5063207E+00
-297.8000E-03,+1.5063207E+00
-297.6000E-03,+1.5058182E+00
-297.4000E-03,+1.5050644E+00
-297.2000E-03,+1.5050644E+00
-297.0000E-03,+1.5050644E+00
-296.8000E-03,+1.5050644E+00
-296.6000E-03,+1.5050644E+00
-296.4000E-03,+1.5050644E+00
-296.2000E-03,+1.5050644E+00
-296.0000E-03,+1.5050644E+00
-295.8000E-03,+1.5050644E+00
-295.6000E-03,+1.5050644E+00
-295.4000E-03,+1.5050644E+00
-295.2000E-03,+1.5050644E+00
-295.0000E-03,+1.5050644E+00
-294.8000E-03,+1.5050644E+00
-294.6000E-03,+1.5050644E+00
-294.4000E-03,+1.5050644E+00
-294.2000E-03,+1.5050644E+00
-294.0000E-03,+1.5050644E+00
-293.8000E-03,+1.5050644E+00
-293.6000E-03,+1.5050644E+00
-293.4000E-03,+1.5050644E+00
-293.2000E-03,+1.5050644E+00
-293.0000E-03,+1.5050644E+00
-292.8000E-03,+1.5050644E+00
-292.6000E-03,+1.5055669E+00
-292.4000E-03,+1.5050644E+00
-292.2000E-03,+1.5050644E+00
-292.0000E-03,+1.5050644E+00
-291.8000E-03,+1.5050644E+00
-291.6000E-03,+1.5058182E+00
-291.4000E-03,+1.5050644E+00
-291.2000E-03,+1.5050644E+00
-291.0000E-03,+1.5063207E+00
-290.8000E-03,+1.5050644E+00
-290.6000E-03,+1.5050644E+00
-290.4000E-03,+1.5050644E+00
-290.2000E-03,+1.5053156E+00
-290.0000E-03,+1.5050644E+00
-289.8000E-03,+1.5060694E+00
-289.6000E-03,+1.5063207E+00
-289.4000E-03,+1.5050644E+00
-289.2000E-03,+1.5050644E+00
-289.0000E-03,+1.5050644E+00
-288.8000E-03,+1.5050644E+00
-288.6000E-03,+1.5038081E+00
-288.4000E-03,+1.5045619E+00
-288.2000E-03,+1.5060694E+00
-288.0000E-03,+1.5063207E+00
-287.8000E-03,+1.5050644E+00
-287.6000E-03,+1.5055669E+00
-287.4000E-03,+1.5050644E+00
-287.2000E-03,+1.5050644E+00
-287.0000E-03,+1.5050644E+00
-286.8000E-03,+1.5050644E+00
-286.6000E-03,+1.5045619E+00
-286.4000E-03,+1.5038081E+00
-286.2000E-03,+1.5040594E+00
-286.0000E-03,+1.5050644E+00
-285.8000E-03,+1.5050644E+00
-285.6000E-03,+1.5050644E+00
-285.4000E-03,+1.5050644E+00
-285.2000E-03,+1.5038081E+00
-285.0000E-03,+1.5050644E+00
-284.8000E-03,+1.5050644E+00
-284.6000E-03,+1.5050644E+00
-284.4000E-03,+1.5050644E+00
-284.2000E-03,+1.5050644E+00
-284.0000E-03,+1.5050644E+00
-283.8000E-03,+1.5050644E+00
-283.6000E-03,+1.5050644E+00
-283.4000E-03,+1.5050644E+00
-283.2000E-03,+1.5050644E+00
-283.0000E-03,+1.5050644E+00
-282.8000E-03,+1.5050644E+00
-282.6000E-03,+1.5050644E+00
-282.4000E-03,+1.5050644E+00
-282.2000E-03,+1.5050644E+00
-282.0000E-03,+1.5050644E+00
-281.8000E-03,+1.5040594E+00
-281.6000E-03,+1.5050644E+00
-281.4000E-03,+1.5088332E+00
-281.2000E-03,+1.5090845E+00
-281.0000E-03,+1.5088332E+00
-280.8000E-03,+1.5088332E+00
-280.6000E-03,+1.5080795E+00
-280.4000E-03,+1.5088332E+00
-280.2000E-03,+1.5088332E+00
-280.0000E-03,+1.5088332E+00
-279.8000E-03,+1.5088332E+00
-279.6000E-03,+1.5100895E+00
-279.4000E-03,+1.5095870E+00
-279.2000E-03,+1.5075769E+00
-279.0000E-03,+1.5088332E+00
-278.8000E-03,+1.5098383E+00
-278.6000E-03,+1.5088332E+00
-278.4000E-03,+1.5088332E+00
-278.2000E-03,+1.5088332E+00
-278.0000E-03,+1.5088332E+00
-277.8000E-03,+1.5090845E+00
-277.6000E-03,+1.5095870E+00
-277.4000E-03,+1.5088332E+00
-277.2000E-03,+1.5088332E+00
-277.0000E-03,+1.5100895E+00
-276.8000E-03,+1.5088332E+00
-276.6000E-03,+1.5088332E+00
-276.4000E-03,+1.5088332E+00
-276.2000E-03,+1.5088332E+00
-276.0000E-03,+1.5075769E+00
-275.8000E-03,+1.5088332E+00
-275.6000E-03,+1.5088332E+00
-275.4000E-03,+1.5088332E+00
-275.2000E-03,+1.5088332E+00
-275.0000E-03,+1.5075769E+00
-274.8000E-03,+1.5075769E+00
-274.6000E-03,+1.5075769E+00
-274.4000E-03,+1.5075769E+00
-274.2000E-03,+1.5085820E+00
-274.0000E-03,+1.5075769E+00
-273.8000E-03,+1.5088332E+00
-273.6000E-03,+1.5083307E+00
-273.4000E-03,+1.5080795E+00
-273.2000E-03,+1.5088332E+00
-273.0000E-03,+1.5075769E+00
-272.8000E-03,+1.5075769E+00
-272.6000E-03,+1.5080795E+00
-272.4000E-03,+1.5075769E+00
-272.2000E-03,+1.5078282E+00
-272.0000E-03,+1.5075769E+00
-271.8000E-03,+1.5075769E+00
-271.6000E-03,+1.5088332E+00
-271.4000E-03,+1.5088332E+00
-271.2000E-03,+1.5088332E+00
-271.0000E-03,+1.5088332E+00
-270.8000E-03,+1.5088332E+00
-270.6000E-03,+1.5093357E+00
-270.4000E-03,+1.5088332E+00
-270.2000E-03,+1.5078282E+00
-270.0000E-03,+1.5088332E+00
-269.8000E-03,+1.5100895E+00
-269.6000E-03,+1.5100895E+00
-269.4000E-03,+1.5100895E+00
-269.2000E-03,+1.5100895E+00
-269.0000E-03,+1.5100895E+00
-268.8000E-03,+1.5090845E+00
-268.6000E-03,+1.5100895E+00
-268.4000E-03,+1.5100895E+00
-268.2000E-03,+1.5100895E+00
-268.0000E-03,+1.5088332E+00
-267.8000E-03,+1.5100895E+00
-267.6000E-03,+1.5095870E+00
-267.4000E-03,+1.5108433E+00
-267.2000E-03,+1.5098383E+00
-267.0000E-03,+1.5100895E+00
-266.8000E-03,+1.5110945E+00
-266.6000E-03,+1.5108433E+00
-266.4000E-03,+1.5100895E+00
-266.2000E-03,+1.5103408E+00
-266.0000E-03,+1.5100895E+00
-265.8000E-03,+1.5113458E+00
-265.6000E-03,+1.5100895E+00
-265.4000E-03,+1.5100895E+00
-265.2000E-03,+1.5103408E+00
-265.0000E-03,+1.5100895E+00
-264.8000E-03,+1.5113458E+00
-264.6000E-03,+1.5113458E+00
-264.4000E-03,+1.5113458E+00
-264.2000E-03,+1.5103408E+00
-264.0000E-03,+1.5113458E+00
-263.8000E-03,+1.5113458E+00
-263.6000E-03,+1.5113458E+00
-263.4000E-03,+1.5113458E+00
-263.2000E-03,+1.5100895E+00
-263.0000E-03,+1.5113458E+00
-262.8000E-03,+1.5126021E+00
-262.6000E-03,+1.5113458E+00
-262.4000E-03,+1.5120996E+00
-262.2000E-03,+1.5126021E+00
-262.0000E-03,+1.5113458E+00
-261.8000E-03,+1.5113458E+00
-261.6000E-03,+1.5120996E+00
-261.4000E-03,+1.5115970E+00
-261.2000E-03,+1.5123508E+00
-261.0000E-03,+1.5126021E+00
-260.8000E-03,+1.5126021E+00
-260.6000E-03,+1.5131046E+00
-260.4000E-03,+1.5138584E+00
-260.2000E-03,+1.5138584E+00
-260.0000E-03,+1.5126021E+00
-259.8000E-03,+1.5126021E+00
-259.6000E-03,+1.5138584E+00
-259.4000E-03,+1.5138584E+00
-259.2000E-03,+1.5126021E+00
-259.0000E-03,+1.5138584E+00
-258.8000E-03,+1.5126021E+00
-258.6000E-03,+1.5138584E+00
-258.4000E-03,+1.5138584E+00
-258.2000E-03,+1.5138584E+00
-258.0000E-03,+1.5138584E+00
-257.8000E-03,+1.5148634E+00
-257.6000E-03,+1.5143609E+00
-257.4000E-03,+1.5151146E+00
-257.2000E-03,+1.5138584E+00
-257.0000E-03,+1.5138584E+00
-256.8000E-03,+1.5151146E+00
-256.6000E-03,+1.5138584E+00
-256.4000E-03,+1.5151146E+00
-256.2000E-03,+1.5151146E+00
-256.0000E-03,+1.5151146E+00
-255.8000E-03,+1.5151146E+00
-255.6000E-03,+1.5138584E+00
-255.4000E-03,+1.5138584E+00
-255.2000E-03,+1.5151146E+00
-255.0000E-03,+1.5151146E+00
-254.8000E-03,+1.5151146E+00
-254.6000E-03,+1.5151146E+00
-254.4000E-03,+1.5151146E+00
-254.2000E-03,+1.5141096E+00
-254.0000E-03,+1.5151146E+00
-253.8000E-03,+1.5151146E+00
-253.6000E-03,+1.5151146E+00
-253.4000E-03,+1.5138584E+00
-253.2000E-03,+1.5151146E+00
-253.0000E-03,+1.5151146E+00
-252.8000E-03,+1.5151146E+00
-252.6000E-03,+1.5151146E+00
-252.4000E-03,+1.5151146E+00
-252.2000E-03,+1.5151146E+00
-252.0000E-03,+1.5151146E+00
-251.8000E-03,+1.5163709E+00
-251.6000E-03,+1.5163709E+00
-251.4000E-03,+1.5156171E+00
-251.2000E-03,+1.5153659E+00
-251.0000E-03,+1.5151146E+00
-250.8000E-03,+1.5161197E+00
-250.6000E-03,+1.5156171E+00
-250.4000E-03,+1.5163709E+00
-250.2000E-03,+1.5163709E+00
-250.0000E-03,+1.5151146E+00
-249.8000E-03,+1.5166222E+00
-249.6000E-03,+1.5163709E+00
-249.4000E-03,+1.5163709E+00
-249.2000E-03,+1.5161197E+00
-249.0000E-03,+1.5163709E+00
-248.8000E-03,+1.5163709E+00
-248.6000E-03,+1.5163709E+00
-248.4000E-03,+1.5163709E+00
-248.2000E-03,+1.5176272E+00
-248.0000E-03,+1.5163709E+00
-247.8000E-03,+1.5176272E+00
-247.6000E-03,+1.5171247E+00
-247.4000E-03,+1.5176272E+00
-247.2000E-03,+1.5176272E+00
-247.0000E-03,+1.5176272E+00
-246.8000E-03,+1.5176272E+00
-246.6000E-03,+1.5171247E+00
-246.4000E-03,+1.5171247E+00
-246.2000E-03,+1.5176272E+00
-246.0000E-03,+1.5176272E+00
-245.8000E-03,+1.5176272E+00
-245.6000E-03,+1.5168734E+00
-245.4000E-03,+1.5176272E+00
-245.2000E-03,+1.5176272E+00
-245.0000E-03,+1.5176272E+00
-244.8000E-03,+1.5166222E+00
-244.6000E-03,+1.5176272E+00
-244.4000E-03,+1.5163709E+00
-244.2000E-03,+1.5176272E+00
-244.0000E-03,+1.5176272E+00
-243.8000E-03,+1.5176272E+00
-243.6000E-03,+1.5176272E+00
-243.4000E-03,+1.5176272E+00
-243.2000E-03,+1.5176272E+00
-243.0000E-03,+1.5176272E+00
-242.8000E-03,+1.5176272E+00
-242.6000E-03,+1.5188835E+00
-242.4000E-03,+1.5188835E+00
-242.2000E-03,+1.5176272E+00
-242.0000E-03,+1.5188835E+00
-241.8000E-03,+1.5188835E+00
-241.6000E-03,+1.5188835E+00
-241.4000E-03,+1.5196372E+00
-241.2000E-03,+1.5201398E+00
-241.0000E-03,+1.5201398E+00
-240.8000E-03,+1.5201398E+00
-240.6000E-03,+1.5201398E+00
-240.4000E-03,+1.5201398E+00
-240.2000E-03,+1.5201398E+00
-240.0000E-03,+1.5201398E+00
-239.8000E-03,+1.5213960E+00
-239.6000E-03,+1.5213960E+00
-239.4000E-03,+1.5226523E+00
-239.2000E-03,+1.5226523E+00
-239.0000E-03,+1.5239086E+00
-238.8000E-03,+1.5239086E+00
-238.6000E-03,+1.5251649E+00
-238.4000E-03,+1.5239086E+00
-238.2000E-03,+1.5241599E+00
-238.0000E-03,+1.5251649E+00
-237.8000E-03,+1.5264212E+00
-237.6000E-03,+1.5276774E+00
-237.4000E-03,+1.5289337E+00
-237.2000E-03,+1.5289337E+00
-237.0000E-03,+1.5314463E+00
-236.8000E-03,+1.5314463E+00
-236.6000E-03,+1.5319488E+00
-236.4000E-03,+1.5322001E+00
-236.2000E-03,+1.5327026E+00
-236.0000E-03,+1.5339589E+00
-235.8000E-03,+1.5352151E+00
-235.6000E-03,+1.5352151E+00
-235.4000E-03,+1.5359689E+00
-235.2000E-03,+1.5374764E+00
-235.0000E-03,+1.5377277E+00
-234.8000E-03,+1.5389840E+00
-234.6000E-03,+1.5389840E+00
-234.4000E-03,+1.5402403E+00
-234.2000E-03,+1.5402403E+00
-234.0000E-03,+1.5414965E+00
-233.8000E-03,+1.5427528E+00
-233.6000E-03,+1.5440091E+00
-233.4000E-03,+1.5447629E+00
-233.2000E-03,+1.5452654E+00
-233.0000E-03,+1.5465217E+00
-232.8000E-03,+1.5480292E+00
-232.6000E-03,+1.5495367E+00
-232.4000E-03,+1.5507930E+00
-232.2000E-03,+1.5515468E+00
-232.0000E-03,+1.5528031E+00
-231.8000E-03,+1.5540594E+00
-231.6000E-03,+1.5558182E+00
-231.4000E-03,+1.5565719E+00
-231.2000E-03,+1.5578282E+00
-231.0000E-03,+1.5578282E+00
-230.8000E-03,+1.5593357E+00
-230.6000E-03,+1.5603408E+00
-230.4000E-03,+1.5615970E+00
-230.2000E-03,+1.5628533E+00
-230.0000E-03,+1.5641096E+00
-229.8000E-03,+1.5653659E+00
-229.6000E-03,+1.5658684E+00
-229.4000E-03,+1.5671247E+00
-229.2000E-03,+1.5688835E+00
-229.0000E-03,+1.5703910E+00
-228.8000E-03,+1.5729036E+00
-228.6000E-03,+1.5746624E+00
-228.4000E-03,+1.5761699E+00
-228.2000E-03,+1.5776774E+00
-228.0000E-03,+1.5779287E+00
-227.8000E-03,+1.5794362E+00
-227.6000E-03,+1.5809438E+00
-227.4000E-03,+1.5824513E+00
-227.2000E-03,+1.5842101E+00
-227.0000E-03,+1.5867227E+00
-226.8000E-03,+1.5879790E+00
-226.6000E-03,+1.5884815E+00
-226.4000E-03,+1.5909940E+00
-226.2000E-03,+1.5940091E+00
-226.0000E-03,+1.5955166E+00
-225.8000E-03,+1.5970242E+00
-225.6000E-03,+1.5980292E+00
-225.4000E-03,+1.6000393E+00
-225.2000E-03,+1.6017981E+00
-225.0000E-03,+1.6030543E+00
-224.8000E-03,+1.6055669E+00
-224.6000E-03,+1.6068232E+00
-224.4000E-03,+1.6088332E+00
-224.2000E-03,+1.6115970E+00
-224.0000E-03,+1.6131046E+00
-223.8000E-03,+1.6156171E+00
-223.6000E-03,+1.6168734E+00
-223.4000E-03,+1.6193860E+00
-223.2000E-03,+1.6203910E+00
-223.0000E-03,+1.6218986E+00
-222.8000E-03,+1.6244111E+00
-222.6000E-03,+1.6274262E+00
-222.4000E-03,+1.6281800E+00
-222.2000E-03,+1.6306925E+00
-222.0000E-03,+1.6332051E+00
-221.8000E-03,+1.6357176E+00
-221.6000E-03,+1.6382302E+00
-221.4000E-03,+1.6394865E+00
-221.2000E-03,+1.6417478E+00
-221.0000E-03,+1.6445116E+00
-220.8000E-03,+1.6460192E+00
-220.6000E-03,+1.6482805E+00
-220.4000E-03,+1.6502905E+00
-220.2000E-03,+1.6530543E+00
-220.0000E-03,+1.6545619E+00
-219.8000E-03,+1.6570744E+00
-219.6000E-03,+1.6595870E+00
-219.4000E-03,+1.6608433E+00
-219.2000E-03,+1.6620996E+00
-219.0000E-03,+1.6633558E+00
-218.8000E-03,+1.6671247E+00
-218.6000E-03,+1.6688835E+00
-218.4000E-03,+1.6729036E+00
-218.2000E-03,+1.6756674E+00
-218.0000E-03,+1.6771749E+00
-217.8000E-03,+1.6784312E+00
-217.6000E-03,+1.6801900E+00
-217.4000E-03,+1.6822001E+00
-217.2000E-03,+1.6844614E+00
-217.0000E-03,+1.6872252E+00
-216.8000E-03,+1.6899890E+00
-216.6000E-03,+1.6914965E+00
-216.4000E-03,+1.6935066E+00
-216.2000E-03,+1.6950141E+00
-216.0000E-03,+1.6985317E+00
-215.8000E-03,+1.7000393E+00
-215.6000E-03,+1.7023006E+00
-215.4000E-03,+1.7043106E+00
-215.2000E-03,+1.7058182E+00
-215.0000E-03,+1.7085820E+00
-214.8000E-03,+1.7113458E+00
-214.6000E-03,+1.7136071E+00
-214.4000E-03,+1.7156171E+00
-214.2000E-03,+1.7183810E+00
-214.0000E-03,+1.7198885E+00
-213.8000E-03,+1.7224011E+00
-213.6000E-03,+1.7241599E+00
-213.4000E-03,+1.7261699E+00
-213.2000E-03,+1.7274262E+00
-213.0000E-03,+1.7299388E+00
-212.8000E-03,+1.7327026E+00
-212.6000E-03,+1.7354664E+00
-212.4000E-03,+1.7374764E+00
-212.2000E-03,+1.7399890E+00
-212.0000E-03,+1.7412453E+00
-211.8000E-03,+1.7437578E+00
-211.6000E-03,+1.7450141E+00
-211.4000E-03,+1.7470242E+00
-211.2000E-03,+1.7487830E+00
-211.0000E-03,+1.7500393E+00
-210.8000E-03,+1.7538081E+00
-210.6000E-03,+1.7563207E+00
-210.4000E-03,+1.7588332E+00
-210.2000E-03,+1.7613458E+00
-210.0000E-03,+1.7638584E+00
-209.8000E-03,+1.7651146E+00
-209.6000E-03,+1.7663709E+00
-209.4000E-03,+1.7688835E+00
-209.2000E-03,+1.7711448E+00
-209.0000E-03,+1.7739086E+00
-208.8000E-03,+1.7754161E+00
-208.6000E-03,+1.7789337E+00
-208.4000E-03,+1.7801900E+00
-208.2000E-03,+1.7824513E+00
-208.0000E-03,+1.7839589E+00
-207.8000E-03,+1.7867227E+00
-207.6000E-03,+1.7889840E+00
-207.4000E-03,+1.7914965E+00
-207.2000E-03,+1.7940091E+00
-207.0000E-03,+1.7952654E+00
-206.8000E-03,+1.7977779E+00
-206.6000E-03,+1.7995367E+00
-206.4000E-03,+1.8015468E+00
-206.2000E-03,+1.8025518E+00
-206.0000E-03,+1.8053156E+00
-205.8000E-03,+1.8078282E+00
-205.6000E-03,+1.8103408E+00
-205.4000E-03,+1.8123508E+00
-205.2000E-03,+1.8143609E+00
-205.0000E-03,+1.8178785E+00
-204.8000E-03,+1.8191347E+00
-204.6000E-03,+1.8208935E+00
-204.4000E-03,+1.8236573E+00
-204.2000E-03,+1.8254161E+00
-204.0000E-03,+1.8291850E+00
-203.8000E-03,+1.8306925E+00
-203.6000E-03,+1.8334563E+00
-203.4000E-03,+1.8349639E+00
-203.2000E-03,+1.8377277E+00
-203.0000E-03,+1.8392352E+00
-202.8000E-03,+1.8409940E+00
-202.6000E-03,+1.8442604E+00
-202.4000E-03,+1.8462704E+00
-202.2000E-03,+1.8477779E+00
-202.0000E-03,+1.8505418E+00
-201.8000E-03,+1.8523006E+00
-201.6000E-03,+1.8548131E+00
-201.4000E-03,+1.8568232E+00
-201.2000E-03,+1.8590845E+00
-201.0000E-03,+1.8605920E+00
-200.8000E-03,+1.8631046E+00
-200.6000E-03,+1.8623508E+00
-200.4000E-03,+1.8663709E+00
-200.2000E-03,+1.8681297E+00
-200.0000E-03,+1.8706423E+00
-199.8000E-03,+1.8734061E+00
-199.6000E-03,+1.8756674E+00
-199.4000E-03,+1.8769237E+00
-199.2000E-03,+1.8794362E+00
-199.0000E-03,+1.8819488E+00
-198.8000E-03,+1.8834563E+00
-198.6000E-03,+1.8857176E+00
-198.4000E-03,+1.8869739E+00
-198.2000E-03,+1.8904915E+00
-198.0000E-03,+1.8919991E+00
-197.8000E-03,+1.8947629E+00
-197.6000E-03,+1.8967729E+00
-197.4000E-03,+1.8990342E+00
-197.2000E-03,+1.9017980E+00
-197.0000E-03,+1.9020493E+00
-196.8000E-03,+1.9048131E+00
-196.6000E-03,+1.9063207E+00
-196.4000E-03,+1.9090845E+00
-196.2000E-03,+1.9120996E+00
-196.0000E-03,+1.9146121E+00
-195.8000E-03,+1.9173759E+00
-195.6000E-03,+1.9196372E+00
-195.4000E-03,+1.9208935E+00
-195.2000E-03,+1.9234061E+00
-195.0000E-03,+1.9259187E+00
-194.8000E-03,+1.9271749E+00
-194.6000E-03,+1.9296875E+00
-194.4000E-03,+1.9329538E+00
-194.2000E-03,+1.9347126E+00
-194.0000E-03,+1.9372252E+00
-193.8000E-03,+1.9387327E+00
-193.6000E-03,+1.9414965E+00
-193.4000E-03,+1.9430041E+00
-193.2000E-03,+1.9447629E+00
-193.0000E-03,+1.9472754E+00
-192.8000E-03,+1.9485317E+00
-192.6000E-03,+1.9515468E+00
-192.4000E-03,+1.9543106E+00
-192.2000E-03,+1.9568232E+00
-192.0000E-03,+1.9585820E+00
-191.8000E-03,+1.9600895E+00
-191.6000E-03,+1.9623508E+00
-191.4000E-03,+1.9643609E+00
-191.2000E-03,+1.9661197E+00
-191.0000E-03,+1.9686322E+00
-190.8000E-03,+1.9713960E+00
-190.6000E-03,+1.9736573E+00
-190.4000E-03,+1.9756674E+00
-190.2000E-03,+1.9784312E+00
-190.0000E-03,+1.9799388E+00
-189.8000E-03,+1.9824513E+00
-189.6000E-03,+1.9849639E+00
-189.4000E-03,+1.9862202E+00
-189.2000E-03,+1.9887327E+00
-189.0000E-03,+1.9912453E+00
-188.8000E-03,+1.9937578E+00
-188.6000E-03,+1.9962704E+00
-188.4000E-03,+1.9975267E+00
-188.2000E-03,+1.9987830E+00
-188.0000E-03,+2.0012955E+00
-187.8000E-03,+2.0038081E+00
-187.6000E-03,+2.0050644E+00
-187.4000E-03,+2.0070744E+00
-187.2000E-03,+2.0110945E+00
-187.0000E-03,+2.0126021E+00
-186.8000E-03,+2.0151146E+00
-186.6000E-03,+2.0176272E+00
-186.4000E-03,+2.0196372E+00
-186.2000E-03,+2.0224011E+00
-186.0000E-03,+2.0239086E+00
-185.8000E-03,+2.0254161E+00
-185.6000E-03,+2.0281800E+00
-185.4000E-03,+2.0296875E+00
-185.2000E-03,+2.0314463E+00
-185.0000E-03,+2.0339589E+00
-184.8000E-03,+2.0367227E+00
-184.6000E-03,+2.0389840E+00
-184.4000E-03,+2.0409940E+00
-184.2000E-03,+2.0425016E+00
-184.0000E-03,+2.0452654E+00
-183.8000E-03,+2.0465217E+00
-183.6000E-03,+2.0477779E+00
-183.4000E-03,+2.0492855E+00
-183.2000E-03,+2.0515468E+00
-183.0000E-03,+2.0540594E+00
-182.8000E-03,+2.0555669E+00
-182.6000E-03,+2.0578282E+00
-182.4000E-03,+2.0598382E+00
-182.2000E-03,+2.0605920E+00
-182.0000E-03,+2.0615970E+00
-181.8000E-03,+2.0628533E+00
-181.6000E-03,+2.0641096E+00
-181.4000E-03,+2.0653659E+00
-181.2000E-03,+2.0666222E+00
-181.0000E-03,+2.0691347E+00
-180.8000E-03,+2.0703910E+00
-180.6000E-03,+2.0716473E+00
-180.4000E-03,+2.0729036E+00
-180.2000E-03,+2.0741599E+00
-180.0000E-03,+2.0766724E+00
-179.8000E-03,+2.0766724E+00
-179.6000E-03,+2.0771749E+00
-179.4000E-03,+2.0791850E+00
-179.2000E-03,+2.0791850E+00
-179.0000E-03,+2.0804413E+00
-178.8000E-03,+2.0816975E+00
-178.6000E-03,+2.0822001E+00
-178.4000E-03,+2.0837076E+00
-178.2000E-03,+2.0829538E+00
-178.0000E-03,+2.0842101E+00
-177.8000E-03,+2.0844614E+00
-177.6000E-03,+2.0849639E+00
-177.4000E-03,+2.0854664E+00
-177.2000E-03,+2.0857176E+00
-177.0000E-03,+2.0867227E+00
-176.8000E-03,+2.0869739E+00
-176.6000E-03,+2.0872252E+00
-176.4000E-03,+2.0879790E+00
-176.2000E-03,+2.0879790E+00
-176.0000E-03,+2.0892352E+00
-175.8000E-03,+2.0899890E+00
-175.6000E-03,+2.0904915E+00
-175.4000E-03,+2.0892352E+00
-175.2000E-03,+2.0914965E+00
-175.0000E-03,+2.0917478E+00
-174.8000E-03,+2.0917478E+00
-174.6000E-03,+2.0917478E+00
-174.4000E-03,+2.0904915E+00
-174.2000E-03,+2.0904915E+00
-174.0000E-03,+2.0904915E+00
-173.8000E-03,+2.0904915E+00
-173.6000E-03,+2.0909940E+00
-173.4000E-03,+2.0899890E+00
-173.2000E-03,+2.0904915E+00
-173.0000E-03,+2.0904915E+00
-172.8000E-03,+2.0892352E+00
-172.6000E-03,+2.0897377E+00
-172.4000E-03,+2.0892352E+00
-172.2000E-03,+2.0892352E+00
-172.0000E-03,+2.0892352E+00
-171.8000E-03,+2.0879790E+00
-171.6000E-03,+2.0879790E+00
-171.4000E-03,+2.0867227E+00
-171.2000E-03,+2.0864714E+00
-171.0000E-03,+2.0854664E+00
-170.8000E-03,+2.0854664E+00
-170.6000E-03,+2.0842101E+00
-170.4000E-03,+2.0842101E+00
-170.2000E-03,+2.0829538E+00
-170.0000E-03,+2.0829538E+00
-169.8000E-03,+2.0827026E+00
-169.6000E-03,+2.0816975E+00
-169.4000E-03,+2.0804413E+00
-169.2000E-03,+2.0791850E+00
-169.0000E-03,+2.0779287E+00
-168.8000E-03,+2.0776774E+00
-168.6000E-03,+2.0759186E+00
-168.4000E-03,+2.0754161E+00
-168.2000E-03,+2.0741599E+00
-168.0000E-03,+2.0729036E+00
-167.8000E-03,+2.0703910E+00
-167.6000E-03,+2.0691347E+00
-167.4000E-03,+2.0678784E+00
-167.2000E-03,+2.0656171E+00
-167.0000E-03,+2.0653659E+00
-166.8000E-03,+2.0641096E+00
-166.6000E-03,+2.0620996E+00
-166.4000E-03,+2.0608433E+00
-166.2000E-03,+2.0603408E+00
-166.0000E-03,+2.0578282E+00
-165.8000E-03,+2.0565719E+00
-165.6000E-03,+2.0553156E+00
-165.4000E-03,+2.0533056E+00
-165.2000E-03,+2.0502905E+00
-165.0000E-03,+2.0490342E+00
-164.8000E-03,+2.0475267E+00
-164.6000E-03,+2.0460192E+00
-164.4000E-03,+2.0440091E+00
-164.2000E-03,+2.0417478E+00
-164.0000E-03,+2.0414965E+00
-163.8000E-03,+2.0389840E+00
-163.6000E-03,+2.0377277E+00
-163.4000E-03,+2.0344614E+00
-163.2000E-03,+2.0316975E+00
-163.0000E-03,+2.0289337E+00
-162.8000E-03,+2.0264212E+00
-162.6000E-03,+2.0251649E+00
-162.4000E-03,+2.0231548E+00
-162.2000E-03,+2.0213960E+00
-162.0000E-03,+2.0188835E+00
-161.8000E-03,+2.0163709E+00
-161.6000E-03,+2.0151146E+00
-161.4000E-03,+2.0118483E+00
-161.2000E-03,+2.0100895E+00
-161.0000E-03,+2.0075769E+00
-160.8000E-03,+2.0050644E+00
-160.6000E-03,+2.0033056E+00
-160.4000E-03,+2.0012955E+00
-160.2000E-03,+1.9990342E+00
-160.0000E-03,+1.9962704E+00
-159.8000E-03,+1.9960192E+00
-159.6000E-03,+1.9932553E+00
-159.4000E-03,+1.9904915E+00
-159.2000E-03,+1.9877277E+00
-159.0000E-03,+1.9862202E+00
-158.8000E-03,+1.9837076E+00
-158.6000E-03,+1.9811950E+00
-158.4000E-03,+1.9791850E+00
-158.2000E-03,+1.9764212E+00
-158.0000E-03,+1.9736573E+00
-157.8000E-03,+1.9721498E+00
-157.6000E-03,+1.9698885E+00
-157.4000E-03,+1.9673759E+00
-157.2000E-03,+1.9661197E+00
-157.0000E-03,+1.9636071E+00
-156.8000E-03,+1.9620996E+00
-156.6000E-03,+1.9598382E+00
-156.4000E-03,+1.9578282E+00
-156.2000E-03,+1.9548131E+00
-156.0000E-03,+1.9535568E+00
-155.8000E-03,+1.9510443E+00
-155.6000E-03,+1.9485317E+00
-155.4000E-03,+1.9465217E+00
-155.2000E-03,+1.9447629E+00
-155.0000E-03,+1.9422503E+00
-154.8000E-03,+1.9407428E+00
-154.6000E-03,+1.9392352E+00
-154.4000E-03,+1.9364714E+00
-154.2000E-03,+1.9337076E+00
-154.0000E-03,+1.9334563E+00
-153.8000E-03,+1.9284312E+00
-153.6000E-03,+1.9279287E+00
-153.4000E-03,+1.9259187E+00
-153.2000E-03,+1.9234061E+00
-153.0000E-03,+1.9208935E+00
-152.8000E-03,+1.9196372E+00
-152.6000E-03,+1.9166222E+00
-152.4000E-03,+1.9133558E+00
-152.2000E-03,+1.9120996E+00
-152.0000E-03,+1.9095870E+00
-151.8000E-03,+1.9068232E+00
-151.6000E-03,+1.9053156E+00
-151.4000E-03,+1.9033056E+00
-151.2000E-03,+1.9007930E+00
-151.0000E-03,+1.8982805E+00
-150.8000E-03,+1.8970242E+00
-150.6000E-03,+1.8945116E+00
-150.4000E-03,+1.8932553E+00
-150.2000E-03,+1.8909940E+00
-150.0000E-03,+1.8869739E+00
-149.8000E-03,+1.8857176E+00
-149.6000E-03,+1.8832051E+00
-149.4000E-03,+1.8819488E+00
-149.2000E-03,+1.8794362E+00
-149.0000E-03,+1.8781800E+00
-148.8000E-03,+1.8754161E+00
-148.6000E-03,+1.8726523E+00
-148.4000E-03,+1.8706423E+00
-148.2000E-03,+1.8671247E+00
-148.0000E-03,+1.8656171E+00
-147.8000E-03,+1.8643609E+00
-147.6000E-03,+1.8626021E+00
-147.4000E-03,+1.8605920E+00
-147.2000E-03,+1.8593357E+00
-147.0000E-03,+1.8568232E+00
-146.8000E-03,+1.8555669E+00
-146.6000E-03,+1.8512955E+00
-146.4000E-03,+1.8492855E+00
-146.2000E-03,+1.8467729E+00
-146.0000E-03,+1.8442604E+00
-145.8000E-03,+1.8427528E+00
-145.6000E-03,+1.8404915E+00
-145.4000E-03,+1.8392352E+00
-145.2000E-03,+1.8369739E+00
-145.0000E-03,+1.8342101E+00
-144.8000E-03,+1.8327026E+00
-144.6000E-03,+1.8291850E+00
-144.4000E-03,+1.8271749E+00
-144.2000E-03,+1.8254161E+00
-144.0000E-03,+1.8229036E+00
-143.8000E-03,+1.8201398E+00
-143.6000E-03,+1.8191347E+00
-143.4000E-03,+1.8158684E+00
-143.2000E-03,+1.8153659E+00
-143.0000E-03,+1.8115970E+00
-142.8000E-03,+1.8100895E+00
-142.6000E-03,+1.8073257E+00
-142.4000E-03,+1.8058181E+00
-142.2000E-03,+1.8030543E+00
-142.0000E-03,+1.8015468E+00
-141.8000E-03,+1.7990342E+00
-141.6000E-03,+1.7972754E+00
-141.4000E-03,+1.7952654E+00
-141.2000E-03,+1.7930041E+00
-141.0000E-03,+1.7914965E+00
-140.8000E-03,+1.7889840E+00
-140.6000E-03,+1.7859689E+00
-140.4000E-03,+1.7844614E+00
-140.2000E-03,+1.7827026E+00
-140.0000E-03,+1.7801900E+00
-139.8000E-03,+1.7776774E+00
-139.6000E-03,+1.7751649E+00
-139.4000E-03,+1.7726523E+00
-139.2000E-03,+1.7713960E+00
-139.0000E-03,+1.7701398E+00
-138.8000E-03,+1.7673759E+00
-138.6000E-03,+1.7646121E+00
-138.4000E-03,+1.7626021E+00
-138.2000E-03,+1.7600895E+00
-138.0000E-03,+1.7575769E+00
-137.8000E-03,+1.7573257E+00
-137.6000E-03,+1.7533056E+00
-137.4000E-03,+1.7505418E+00
-137.2000E-03,+1.7490342E+00
-137.0000E-03,+1.7462704E+00
-136.8000E-03,+1.7447629E+00
-136.6000E-03,+1.7425016E+00
-136.4000E-03,+1.7412453E+00
-136.2000E-03,+1.7387327E+00
-136.0000E-03,+1.7374764E+00
-135.8000E-03,+1.7349639E+00
-135.6000E-03,+1.7332051E+00
-135.4000E-03,+1.7291850E+00
-135.2000E-03,+1.7274262E+00
-135.0000E-03,+1.7249136E+00
-134.8000E-03,+1.7224011E+00
-134.6000E-03,+1.7211448E+00
-134.4000E-03,+1.7198885E+00
-134.2000E-03,+1.7176272E+00
-134.0000E-03,+1.7161197E+00
-133.8000E-03,+1.7133558E+00
-133.6000E-03,+1.7105920E+00
-133.4000E-03,+1.7078282E+00
-133.2000E-03,+1.7050644E+00
-133.0000E-03,+1.7048131E+00
-132.8000E-03,+1.7010443E+00
-132.6000E-03,+1.6997880E+00
-132.4000E-03,+1.6977780E+00
-132.2000E-03,+1.6960192E+00
-132.0000E-03,+1.6922503E+00
-131.8000E-03,+1.6909940E+00
-131.6000E-03,+1.6892352E+00
-131.4000E-03,+1.6864714E+00
-131.2000E-03,+1.6847126E+00
-131.0000E-03,+1.6822001E+00
-130.8000E-03,+1.6796875E+00
-130.6000E-03,+1.6784312E+00
-130.4000E-03,+1.6771749E+00
-130.2000E-03,+1.6749136E+00
-130.0000E-03,+1.6721498E+00
-129.8000E-03,+1.6683810E+00
-129.6000E-03,+1.6666222E+00
-129.4000E-03,+1.6641096E+00
-129.2000E-03,+1.6620996E+00
-129.0000E-03,+1.6595870E+00
-128.8000E-03,+1.6580795E+00
-128.6000E-03,+1.6565719E+00
-128.4000E-03,+1.6545619E+00
-128.2000E-03,+1.6520493E+00
-128.0000E-03,+1.6495367E+00
-127.8000E-03,+1.6480292E+00
-127.6000E-03,+1.6445116E+00
-127.4000E-03,+1.6425016E+00
-127.2000E-03,+1.6407428E+00
-127.0000E-03,+1.6382302E+00
-126.8000E-03,+1.6367227E+00
-126.6000E-03,+1.6344614E+00
-126.4000E-03,+1.6324513E+00
-126.2000E-03,+1.6296875E+00
-126.0000E-03,+1.6281800E+00
-125.8000E-03,+1.6256674E+00
-125.6000E-03,+1.6239086E+00
-125.4000E-03,+1.6218986E+00
-125.2000E-03,+1.6206423E+00
-125.0000E-03,+1.6193860E+00
-124.8000E-03,+1.6166222E+00
-124.6000E-03,+1.6143609E+00
-124.4000E-03,+1.6131046E+00
-124.2000E-03,+1.6105920E+00
-124.0000E-03,+1.6080795E+00
-123.8000E-03,+1.6065719E+00
-123.6000E-03,+1.6043106E+00
-123.4000E-03,+1.6030543E+00
-123.2000E-03,+1.6007930E+00
-123.0000E-03,+1.5992855E+00
-122.8000E-03,+1.5967729E+00
-122.6000E-03,+1.5967729E+00
-122.4000E-03,+1.5947629E+00
-122.2000E-03,+1.5930041E+00
-122.0000E-03,+1.5917478E+00
-121.8000E-03,+1.5889840E+00
-121.6000E-03,+1.5874764E+00
-121.4000E-03,+1.5847126E+00
-121.2000E-03,+1.5829538E+00
-121.0000E-03,+1.5816975E+00
-120.8000E-03,+1.5804413E+00
-120.6000E-03,+1.5799388E+00
-120.4000E-03,+1.5791850E+00
-120.2000E-03,+1.5779287E+00
-120.0000E-03,+1.5766724E+00
-119.8000E-03,+1.5744111E+00
-119.6000E-03,+1.5736573E+00
-119.4000E-03,+1.5716473E+00
-119.2000E-03,+1.5703910E+00
-119.0000E-03,+1.5678785E+00
-118.8000E-03,+1.5666222E+00
-118.6000E-03,+1.5653659E+00
-118.4000E-03,+1.5646121E+00
-118.2000E-03,+1.5628533E+00
-118.0000E-03,+1.5628533E+00
-117.8000E-03,+1.5603408E+00
-117.6000E-03,+1.5598383E+00
-117.4000E-03,+1.5590845E+00
-117.2000E-03,+1.5568232E+00
-117.0000E-03,+1.5565719E+00
-116.8000E-03,+1.5553156E+00
-116.6000E-03,+1.5535568E+00
-116.4000E-03,+1.5528031E+00
-116.2000E-03,+1.5515468E+00
-116.0000E-03,+1.5490342E+00
-115.8000E-03,+1.5487830E+00
-115.6000E-03,+1.5477780E+00
-115.4000E-03,+1.5465217E+00
-115.2000E-03,+1.5455166E+00
-115.0000E-03,+1.5440091E+00
-114.8000E-03,+1.5440091E+00
-114.6000E-03,+1.5440091E+00
-114.4000E-03,+1.5414965E+00
-114.2000E-03,+1.5414965E+00
-114.0000E-03,+1.5402403E+00
-113.8000E-03,+1.5399890E+00
-113.6000E-03,+1.5389840E+00
-113.4000E-03,+1.5377277E+00
-113.2000E-03,+1.5377277E+00
-113.0000E-03,+1.5364714E+00
-112.8000E-03,+1.5362202E+00
-112.6000E-03,+1.5352151E+00
-112.4000E-03,+1.5344614E+00
-112.2000E-03,+1.5329538E+00
-112.0000E-03,+1.5327026E+00
-111.8000E-03,+1.5316975E+00
-111.6000E-03,+1.5314463E+00
-111.4000E-03,+1.5314463E+00
-111.2000E-03,+1.5311950E+00
-111.0000E-03,+1.5301900E+00
-110.8000E-03,+1.5289337E+00
-110.6000E-03,+1.5271749E+00
-110.4000E-03,+1.5264212E+00
-110.2000E-03,+1.5254161E+00
-110.0000E-03,+1.5251649E+00
-109.8000E-03,+1.5249136E+00
-109.6000E-03,+1.5244111E+00
-109.4000E-03,+1.5239086E+00
-109.2000E-03,+1.5239086E+00
-109.0000E-03,+1.5239086E+00
-108.8000E-03,+1.5226523E+00
-108.6000E-03,+1.5226523E+00
-108.4000E-03,+1.5213960E+00
-108.2000E-03,+1.5213960E+00
-108.0000E-03,+1.5213960E+00
-107.8000E-03,+1.5213960E+00
-107.6000E-03,+1.5201398E+00
-107.4000E-03,+1.5213960E+00
-107.2000E-03,+1.5201398E+00
-107.0000E-03,+1.5201398E+00
-106.8000E-03,+1.5201398E+00
-106.6000E-03,+1.5201398E+00
-106.4000E-03,+1.5201398E+00
-106.2000E-03,+1.5201398E+00
-106.0000E-03,+1.5188835E+00
-105.8000E-03,+1.5188835E+00
-105.6000E-03,+1.5188835E+00
-105.4000E-03,+1.5196372E+00
-105.2000E-03,+1.5188835E+00
-105.0000E-03,+1.5188835E+00
-104.8000E-03,+1.5191347E+00
-104.6000E-03,+1.5188835E+00
-104.4000E-03,+1.5181297E+00
-104.2000E-03,+1.5188835E+00
-104.0000E-03,+1.5188835E+00
-103.8000E-03,+1.5188835E+00
-103.6000E-03,+1.5188835E+00
-103.4000E-03,+1.5188835E+00
-103.2000E-03,+1.5188835E+00
-103.0000E-03,+1.5188835E+00
-102.8000E-03,+1.5188835E+00
-102.6000E-03,+1.5196372E+00
-102.4000E-03,+1.5188835E+00
-102.2000E-03,+1.5188835E+00
-102.0000E-03,+1.5188835E+00
-101.8000E-03,+1.5188835E+00
-101.6000E-03,+1.5188835E+00
-101.4000E-03,+1.5188835E+00
-101.2000E-03,+1.5188835E+00
-101.0000E-03,+1.5188835E+00
-100.8000E-03,+1.5201398E+00
-100.6000E-03,+1.5188835E+00
-100.4000E-03,+1.5181297E+00
-100.2000E-03,+1.5188835E+00
-100.0000E-03,+1.5176272E+00
-99.8000E-03,+1.5188835E+00
-99.6000E-03,+1.5188835E+00
-99.4000E-03,+1.5188835E+00
-99.2000E-03,+1.5188835E+00
-99.0000E-03,+1.5188835E+00
-98.8000E-03,+1.5198885E+00
-98.6000E-03,+1.5188835E+00
-98.4000E-03,+1.5181297E+00
-98.2000E-03,+1.5188835E+00
-98.0000E-03,+1.5188835E+00
-97.8000E-03,+1.5176272E+00
-97.6000E-03,+1.5181297E+00
-97.4000E-03,+1.5176272E+00
-97.2000E-03,+1.5178785E+00
-97.0000E-03,+1.5188835E+00
-96.8000E-03,+1.5188835E+00
-96.6000E-03,+1.5181297E+00
-96.4000E-03,+1.5188835E+00
-96.2000E-03,+1.5176272E+00
-96.0000E-03,+1.5176272E+00
-95.8000E-03,+1.5173759E+00
-95.6000E-03,+1.5176272E+00
-95.4000E-03,+1.5176272E+00
-95.2000E-03,+1.5176272E+00
-95.0000E-03,+1.5176272E+00
-94.8000E-03,+1.5178785E+00
-94.6000E-03,+1.5176272E+00
-94.4000E-03,+1.5176272E+00
-94.2000E-03,+1.5176272E+00
-94.0000E-03,+1.5176272E+00
-93.8000E-03,+1.5173759E+00
-93.6000E-03,+1.5171247E+00
-93.4000E-03,+1.5163709E+00
-93.2000E-03,+1.5163709E+00
-93.0000E-03,+1.5163709E+00
-92.8000E-03,+1.5163709E+00
-92.6000E-03,+1.5163709E+00
-92.4000E-03,+1.5163709E+00
-92.2000E-03,+1.5163709E+00
-92.0000E-03,+1.5163709E+00
-91.8000E-03,+1.5163709E+00
-91.6000E-03,+1.5163709E+00
-91.4000E-03,+1.5163709E+00
-91.2000E-03,+1.5163709E+00
-91.0000E-03,+1.5163709E+00
-90.8000E-03,+1.5176272E+00
-90.6000E-03,+1.5168734E+00
-90.4000E-03,+1.5163709E+00
-90.2000E-03,+1.5163709E+00
-90.0000E-03,+1.5163709E+00
-89.8000E-03,+1.5163709E+00
-89.6000E-03,+1.5163709E+00
-89.4000E-03,+1.5163709E+00
-89.2000E-03,+1.5163709E+00
-89.0000E-03,+1.5163709E+00
-88.8000E-03,+1.5173759E+00
-88.6000E-03,+1.5163709E+00
-88.4000E-03,+1.5163709E+00
-88.2000E-03,+1.5166222E+00
-88.0000E-03,+1.5163709E+00
-87.8000E-03,+1.5163709E+00
-87.6000E-03,+1.5163709E+00
-87.4000E-03,+1.5163709E+00
-87.2000E-03,+1.5151146E+00
-87.0000E-03,+1.5163709E+00
-86.8000E-03,+1.5151146E+00
-86.6000E-03,+1.5163709E+00
-86.4000E-03,+1.5156171E+00
-86.2000E-03,+1.5161197E+00
-86.0000E-03,+1.5163709E+00
-85.8000E-03,+1.5151146E+00
-85.6000E-03,+1.5158684E+00
-85.4000E-03,+1.5163709E+00
-85.2000E-03,+1.5151146E+00
-85.0000E-03,+1.5151146E+00
-84.8000E-03,+1.5151146E+00
-84.6000E-03,+1.5151146E+00
-84.4000E-03,+1.5158684E+00
-84.2000E-03,+1.5151146E+00
-84.0000E-03,+1.5151146E+00
-83.8000E-03,+1.5138584E+00
-83.6000E-03,+1.5146121E+00
-83.4000E-03,+1.5143609E+00
-83.2000E-03,+1.5141096E+00
-83.0000E-03,+1.5138584E+00
-82.8000E-03,+1.5151146E+00
-82.6000E-03,+1.5151146E+00
-82.4000E-03,+1.5151146E+00
-82.2000E-03,+1.5151146E+00
-82.0000E-03,+1.5151146E+00
-81.8000E-03,+1.5148634E+00
-81.6000E-03,+1.5131046E+00
-81.4000E-03,+1.5143609E+00
-81.2000E-03,+1.5151146E+00
-81.0000E-03,+1.5138584E+00
-80.8000E-03,+1.5138584E+00
-80.6000E-03,+1.5143609E+00
-80.4000E-03,+1.5151146E+00
-80.2000E-03,+1.5151146E+00
-80.0000E-03,+1.5138584E+00
-79.8000E-03,+1.5151146E+00
-79.6000E-03,+1.5138584E+00
-79.4000E-03,+1.5143609E+00
-79.2000E-03,+1.5151146E+00
-79.0000E-03,+1.5151146E+00
-78.8000E-03,+1.5138584E+00
-78.6000E-03,+1.5151146E+00
-78.4000E-03,+1.5138584E+00
-78.2000E-03,+1.5138584E+00
-78.0000E-03,+1.5138584E+00
-77.8000E-03,+1.5138584E+00
-77.6000E-03,+1.5138584E+00
-77.4000E-03,+1.5126021E+00
-77.2000E-03,+1.5138584E+00
-77.0000E-03,+1.5126021E+00
-76.8000E-03,+1.5126021E+00
-76.6000E-03,+1.5131046E+00
-76.4000E-03,+1.5138584E+00
-76.2000E-03,+1.5138584E+00
-76.0000E-03,+1.5138584E+00
-75.8000E-03,+1.5136071E+00
-75.6000E-03,+1.5133558E+00
-75.4000E-03,+1.5126021E+00
-75.2000E-03,+1.5126021E+00
-75.0000E-03,+1.5138584E+00
-74.8000E-03,+1.5126021E+00
-74.6000E-03,+1.5126021E+00
-74.4000E-03,+1.5138584E+00
-74.2000E-03,+1.5126021E+00
-74.0000E-03,+1.5126021E+00
-73.8000E-03,+1.5126021E+00
-73.6000E-03,+1.5133558E+00
-73.4000E-03,+1.5126021E+00
-73.2000E-03,+1.5126021E+00
-73.0000E-03,+1.5113458E+00
-72.8000E-03,+1.5126021E+00
-72.6000E-03,+1.5113458E+00
-72.4000E-03,+1.5113458E+00
-72.2000E-03,+1.5113458E+00
-72.0000E-03,+1.5113458E+00
-71.8000E-03,+1.5126021E+00
-71.6000E-03,+1.5126021E+00
-71.4000E-03,+1.5120996E+00
-71.2000E-03,+1.5115970E+00
-71.0000E-03,+1.5113458E+00
-70.8000E-03,+1.5115970E+00
-70.6000E-03,+1.5120996E+00
-70.4000E-03,+1.5113458E+00
-70.2000E-03,+1.5113458E+00
-70.0000E-03,+1.5126021E+00
-69.8000E-03,+1.5126021E+00
-69.6000E-03,+1.5113458E+00
-69.4000E-03,+1.5113458E+00
-69.2000E-03,+1.5113458E+00
-69.0000E-03,+1.5113458E+00
-68.8000E-03,+1.5113458E+00
-68.6000E-03,+1.5113458E+00
-68.4000E-03,+1.5113458E+00
-68.2000E-03,+1.5103408E+00
-68.0000E-03,+1.5100895E+00
-67.8000E-03,+1.5100895E+00
-67.6000E-03,+1.5113458E+00
-67.4000E-03,+1.5113458E+00
-67.2000E-03,+1.5113458E+00
-67.0000E-03,+1.5113458E+00
-66.8000E-03,+1.5100895E+00
-66.6000E-03,+1.5113458E+00
-66.4000E-03,+1.5113458E+00
-66.2000E-03,+1.5100895E+00
-66.0000E-03,+1.5100895E+00
-65.8000E-03,+1.5103408E+00
-65.6000E-03,+1.5100895E+00
-65.4000E-03,+1.5105920E+00
-65.2000E-03,+1.5100895E+00
-65.0000E-03,+1.5100895E+00
-64.8000E-03,+1.5100895E+00
-64.6000E-03,+1.5100895E+00
-64.4000E-03,+1.5100895E+00
-64.2000E-03,+1.5088332E+00
-64.0000E-03,+1.5088332E+00
-63.8000E-03,+1.5075769E+00
-63.6000E-03,+1.5093357E+00
-63.4000E-03,+1.5100895E+00
-63.2000E-03,+1.5100895E+00
-63.0000E-03,+1.5100895E+00
-62.8000E-03,+1.5100895E+00
-62.6000E-03,+1.5095870E+00
-62.4000E-03,+1.5093357E+00
-62.2000E-03,+1.5100895E+00
-62.0000E-03,+1.5088332E+00
-61.8000E-03,+1.5088332E+00
-61.6000E-03,+1.5088332E+00
-61.4000E-03,+1.5088332E+00
-61.2000E-03,+1.5088332E+00
-61.0000E-03,+1.5088332E+00
-60.8000E-03,+1.5100895E+00
-60.6000E-03,+1.5088332E+00
-60.4000E-03,+1.5088332E+00
-60.2000E-03,+1.5090845E+00
-60.0000E-03,+1.5088332E+00
-59.8000E-03,+1.5085820E+00
-59.6000E-03,+1.5088332E+00
-59.4000E-03,+1.5090845E+00
-59.2000E-03,+1.5098383E+00
-59.0000E-03,+1.5088332E+00
-58.8000E-03,+1.5085820E+00
-58.6000E-03,+1.5088332E+00
-58.4000E-03,+1.5080795E+00
-58.2000E-03,+1.5078282E+00
-58.0000E-03,+1.5088332E+00
-57.8000E-03,+1.5075769E+00
-57.6000E-03,+1.5075769E+00
-57.4000E-03,+1.5075769E+00
-57.2000E-03,+1.5085820E+00
-57.0000E-03,+1.5088332E+00
-56.8000E-03,+1.5075769E+00
-56.6000E-03,+1.5075769E+00
-56.4000E-03,+1.5068232E+00
-56.2000E-03,+1.5073257E+00
-56.0000E-03,+1.5075769E+00
-55.8000E-03,+1.5075769E+00
-55.6000E-03,+1.5075769E+00
-55.4000E-03,+1.5080795E+00
-55.2000E-03,+1.5073257E+00
-55.0000E-03,+1.5088332E+00
-54.8000E-03,+1.5088332E+00
-54.6000E-03,+1.5068232E+00
-54.4000E-03,+1.5080795E+00
-54.2000E-03,+1.5075769E+00
-54.0000E-03,+1.5075769E+00
-53.8000E-03,+1.5063207E+00
-53.6000E-03,+1.5070744E+00
-53.4000E-03,+1.5063207E+00
-53.2000E-03,+1.5063207E+00
-53.0000E-03,+1.5063207E+00
-52.8000E-03,+1.5050644E+00
-52.6000E-03,+1.5050644E+00
-52.4000E-03,+1.5038081E+00
-52.2000E-03,+1.5038081E+00
-52.0000E-03,+1.5025518E+00
-51.8000E-03,+1.5025518E+00
-51.6000E-03,+1.5012955E+00
-51.4000E-03,+1.5000393E+00
-51.2000E-03,+1.5002905E+00
-51.0000E-03,+1.4987830E+00
-50.8000E-03,+1.4987830E+00
-50.6000E-03,+1.4987830E+00
-50.4000E-03,+1.4975267E+00
-50.2000E-03,+1.4962704E+00
-50.0000E-03,+1.4950141E+00
-49.8000E-03,+1.4935066E+00
-49.6000E-03,+1.4925016E+00
-49.4000E-03,+1.4912453E+00
-49.2000E-03,+1.4899890E+00
-49.0000E-03,+1.4887327E+00
-48.8000E-03,+1.4862202E+00
-48.6000E-03,+1.4857177E+00
-48.4000E-03,+1.4837076E+00
-48.2000E-03,+1.4827026E+00
-48.0000E-03,+1.4799388E+00
-47.8000E-03,+1.4784312E+00
-47.6000E-03,+1.4774262E+00
-47.4000E-03,+1.4741599E+00
-47.2000E-03,+1.4726523E+00
-47.0000E-03,+1.4698885E+00
-46.8000E-03,+1.4676272E+00
-46.6000E-03,+1.4656171E+00
-46.4000E-03,+1.4636071E+00
-46.2000E-03,+1.4615970E+00
-46.0000E-03,+1.4598383E+00
-45.8000E-03,+1.4583307E+00
-45.6000E-03,+1.4555669E+00
-45.4000E-03,+1.4535568E+00
-45.2000E-03,+1.4512955E+00
-45.0000E-03,+1.4485317E+00
-44.8000E-03,+1.4457679E+00
-44.6000E-03,+1.4422503E+00
-44.4000E-03,+1.4402403E+00
-44.2000E-03,+1.4374764E+00
-44.0000E-03,+1.4359689E+00
-43.8000E-03,+1.4322001E+00
-43.6000E-03,+1.4291850E+00
-43.4000E-03,+1.4259187E+00
-43.2000E-03,+1.4234061E+00
-43.0000E-03,+1.4196372E+00
-42.8000E-03,+1.4168734E+00
-42.6000E-03,+1.4141096E+00
-42.4000E-03,+1.4108433E+00
-42.2000E-03,+1.4085820E+00
-42.0000E-03,+1.4045619E+00
-41.8000E-03,+1.4005418E+00
-41.6000E-03,+1.3977780E+00
-41.4000E-03,+1.3932553E+00
-41.2000E-03,+1.3897378E+00
-41.0000E-03,+1.3869739E+00
-40.8000E-03,+1.3816976E+00
-40.6000E-03,+1.3789337E+00
-40.4000E-03,+1.3749136E+00
-40.2000E-03,+1.3721498E+00
-40.0000E-03,+1.3668734E+00
-39.8000E-03,+1.3628533E+00
-39.6000E-03,+1.3588332E+00
-39.4000E-03,+1.3548131E+00
-39.2000E-03,+1.3495367E+00
-39.0000E-03,+1.3455166E+00
-38.8000E-03,+1.3414965E+00
-38.6000E-03,+1.3374764E+00
-38.4000E-03,+1.3347126E+00
-38.2000E-03,+1.3296875E+00
-38.0000E-03,+1.3254161E+00
-37.8000E-03,+1.3201398E+00
-37.6000E-03,+1.3148634E+00
-37.4000E-03,+1.3115970E+00
-37.2000E-03,+1.3058182E+00
-37.0000E-03,+1.3015468E+00
-36.8000E-03,+1.2975267E+00
-36.6000E-03,+1.2917478E+00
-36.4000E-03,+1.2869739E+00
-36.2000E-03,+1.2816976E+00
-36.0000E-03,+1.2776775E+00
-35.8000E-03,+1.2736574E+00
-35.6000E-03,+1.2683810E+00
-35.4000E-03,+1.2626021E+00
-35.2000E-03,+1.2578282E+00
-35.0000E-03,+1.2538081E+00
-34.8000E-03,+1.2485317E+00
-34.6000E-03,+1.2445116E+00
-34.4000E-03,+1.2404915E+00
-34.2000E-03,+1.2364714E+00
-34.0000E-03,+1.2311950E+00
-33.8000E-03,+1.2271749E+00
-33.6000E-03,+1.2236574E+00
-33.4000E-03,+1.2203910E+00
-33.2000E-03,+1.2176272E+00
-33.0000E-03,+1.2148634E+00
-32.8000E-03,+1.2118483E+00
-32.6000E-03,+1.2080795E+00
-32.4000E-03,+1.2053156E+00
-32.2000E-03,+1.2012955E+00
-32.0000E-03,+1.1997880E+00
-31.8000E-03,+1.1972754E+00
-31.6000E-03,+1.1955166E+00
-31.4000E-03,+1.1935066E+00
-31.2000E-03,+1.1912453E+00
-31.0000E-03,+1.1884815E+00
-30.8000E-03,+1.1869739E+00
-30.6000E-03,+1.1859689E+00
-30.4000E-03,+1.1847126E+00
-30.2000E-03,+1.1824513E+00
-30.0000E-03,+1.1822001E+00
-29.8000E-03,+1.1809438E+00
-29.6000E-03,+1.1804413E+00
-29.4000E-03,+1.1809438E+00
-29.2000E-03,+1.1796875E+00
-29.0000E-03,+1.1796875E+00
-28.8000E-03,+1.1796875E+00
-28.6000E-03,+1.1796875E+00
-28.4000E-03,+1.1796875E+00
-28.2000E-03,+1.1809438E+00
-28.0000E-03,+1.1809438E+00
-27.8000E-03,+1.1822001E+00
-27.6000E-03,+1.1834563E+00
-27.4000E-03,+1.1847126E+00
-27.2000E-03,+1.1859689E+00
-27.0000E-03,+1.1872252E+00
-26.8000E-03,+1.1884815E+00
-26.6000E-03,+1.1897378E+00
-26.4000E-03,+1.1930041E+00
-26.2000E-03,+1.1945116E+00
-26.0000E-03,+1.1972754E+00
-25.8000E-03,+1.1987830E+00
-25.6000E-03,+1.2023006E+00
-25.4000E-03,+1.2055669E+00
-25.2000E-03,+1.2070744E+00
-25.0000E-03,+1.2123508E+00
-24.8000E-03,+1.2151146E+00
-24.6000E-03,+1.2186322E+00
-24.4000E-03,+1.2213960E+00
-24.2000E-03,+1.2256674E+00
-24.0000E-03,+1.2286825E+00
-23.8000E-03,+1.2342101E+00
-23.6000E-03,+1.2392352E+00
-23.4000E-03,+1.2432553E+00
-23.2000E-03,+1.2485317E+00
-23.0000E-03,+1.2538081E+00
-22.8000E-03,+1.2578282E+00
-22.6000E-03,+1.2631046E+00
-22.4000E-03,+1.2691347E+00
-22.2000E-03,+1.2749136E+00
-22.0000E-03,+1.2789337E+00
-21.8000E-03,+1.2854664E+00
-21.6000E-03,+1.2919991E+00
-21.4000E-03,+1.2972754E+00
-21.2000E-03,+1.3035568E+00
-21.0000E-03,+1.3103408E+00
-20.8000E-03,+1.3158684E+00
-20.6000E-03,+1.3226523E+00
-20.4000E-03,+1.3306925E+00
-20.2000E-03,+1.3374764E+00
-20.0000E-03,+1.3442604E+00
-19.8000E-03,+1.3533056E+00
-19.6000E-03,+1.3603408E+00
-19.4000E-03,+1.3691347E+00
-19.2000E-03,+1.3764212E+00
-19.0000E-03,+1.3844614E+00
-18.8000E-03,+1.3937579E+00
-18.6000E-03,+1.4010443E+00
-18.4000E-03,+1.4098383E+00
-18.2000E-03,+1.4178785E+00
-18.0000E-03,+1.4259187E+00
-17.8000E-03,+1.4364714E+00
-17.6000E-03,+1.4445116E+00
-17.4000E-03,+1.4545619E+00
-17.2000E-03,+1.4631046E+00
-17.0000E-03,+1.4736573E+00
-16.8000E-03,+1.4844614E+00
-16.6000E-03,+1.4940091E+00
-16.4000E-03,+1.5028031E+00
-16.2000E-03,+1.5143609E+00
-16.0000E-03,+1.5239086E+00
-15.8000E-03,+1.5357177E+00
-15.6000E-03,+1.5455166E+00
-15.4000E-03,+1.5575769E+00
-15.2000E-03,+1.5671247E+00
-15.0000E-03,+1.5791850E+00
-14.8000E-03,+1.5912453E+00
-14.6000E-03,+1.6020493E+00
-14.4000E-03,+1.6141096E+00
-14.2000E-03,+1.6261699E+00
-14.0000E-03,+1.6394865E+00
-13.8000E-03,+1.6517981E+00
-13.6000E-03,+1.6636071E+00
-13.4000E-03,+1.6756674E+00
-13.2000E-03,+1.6887327E+00
-13.0000E-03,+1.7010443E+00
-12.8000E-03,+1.7131046E+00
-12.6000E-03,+1.7246624E+00
-12.4000E-03,+1.7377277E+00
-12.2000E-03,+1.7490342E+00
-12.0000E-03,+1.7626021E+00
-11.8000E-03,+1.7734061E+00
-11.6000E-03,+1.7854664E+00
-11.4000E-03,+1.7975267E+00
-11.2000E-03,+1.8105920E+00
-11.0000E-03,+1.8229036E+00
-10.8000E-03,+1.8352151E+00
-10.6000E-03,+1.8482805E+00
-10.4000E-03,+1.8603408E+00
-10.2000E-03,+1.8711448E+00
-10.0000E-03,+1.8844614E+00
-9.8000E-03,+1.8965217E+00
-9.6000E-03,+1.9078282E+00
-9.4000E-03,+1.9206423E+00
-9.2000E-03,+1.9339589E+00
-9.0000E-03,+1.9447629E+00
-8.8000E-03,+1.9580795E+00
-8.6000E-03,+1.9688835E+00
-8.4000E-03,+1.9827026E+00
-8.2000E-03,+1.9952654E+00
-8.0000E-03,+2.0075769E+00
-7.8000E-03,+2.0196372E+00
-7.6000E-03,+2.0329538E+00
-7.4000E-03,+2.0450141E+00
-7.2000E-03,+2.0570744E+00
-7.0000E-03,+2.0691347E+00
-6.8000E-03,+2.0824513E+00
-6.6000E-03,+2.0937578E+00
-6.4000E-03,+2.1053156E+00
-6.2000E-03,+2.1186322E+00
-6.0000E-03,+2.1319488E+00
-5.8000E-03,+2.1427528E+00
-5.6000E-03,+2.1540594E+00
-5.4000E-03,+2.1676272E+00
-5.2000E-03,+2.1801900E+00
-5.0000E-03,+2.1922503E+00
-4.8000E-03,+2.2053156E+00
-4.6000E-03,+2.2183810E+00
-4.4000E-03,+2.2304413E+00
-4.2000E-03,+2.2430041E+00
-4.0000E-03,+2.2538081E+00
-3.8000E-03,+2.2671247E+00
-3.6000E-03,+2.2791850E+00
-3.4000E-03,+2.2899890E+00
-3.2000E-03,+2.3030543E+00
-3.0000E-03,+2.3153659E+00
-2.8000E-03,+2.3289337E+00
-2.6000E-03,+2.3414965E+00
-2.4000E-03,+2.3528031E+00
-2.2000E-03,+2.3638583E+00
-2.0000E-03,+2.3769237E+00
-1.8000E-03,+2.3889840E+00
-1.6000E-03,+2.4015468E+00
-1.4000E-03,+2.4126021E+00
-1.2000E-03,+2.4241599E+00
-1.0000E-03,+2.4384815E+00
-800.0E-06,+2.4492855E+00
-600.0E-06,+2.4613458E+00
-400.0E-06,+2.4734061E+00
-200.0E-06,+2.4857176E+00
-0.0E+00,+2.4987830E+00
+200.0E-06,+2.5110945E+00
+400.0E-06,+2.5229036E+00
+600.0E-06,+2.5337076E+00
+800.0E-06,+2.5447629E+00
+1.0000E-03,+2.5578282E+00
+1.2000E-03,+2.5711448E+00
+1.4000E-03,+2.5839588E+00
+1.6000E-03,+2.5960191E+00
+1.8000E-03,+2.6083307E+00
+2.0000E-03,+2.6218985E+00
+2.2000E-03,+2.6327026E+00
+2.4000E-03,+2.6447629E+00
+2.6000E-03,+2.6568232E+00
+2.8000E-03,+2.6698885E+00
+3.0000E-03,+2.6822001E+00
+3.2000E-03,+2.6932553E+00
+3.4000E-03,+2.7058181E+00
+3.6000E-03,+2.7176272E+00
+3.8000E-03,+2.7314463E+00
+4.0000E-03,+2.7437578E+00
+4.2000E-03,+2.7558181E+00
+4.4000E-03,+2.7678784E+00
+4.6000E-03,+2.7791850E+00
+4.8000E-03,+2.7894865E+00
+5.0000E-03,+2.8002905E+00
+5.2000E-03,+2.8108433E+00
+5.4000E-03,+2.8213960E+00
+5.6000E-03,+2.8306925E+00
+5.8000E-03,+2.8425016E+00
+6.0000E-03,+2.8517980E+00
+6.2000E-03,+2.8613458E+00
+6.4000E-03,+2.8698885E+00
+6.6000E-03,+2.8784312E+00
+6.8000E-03,+2.8867227E+00
+7.0000E-03,+2.8945116E+00
+7.2000E-03,+2.9025518E+00
+7.4000E-03,+2.9093357E+00
+7.6000E-03,+2.9168734E+00
+7.8000E-03,+2.9231548E+00
+8.0000E-03,+2.9296875E+00
+8.2000E-03,+2.9377277E+00
+8.4000E-03,+2.9432553E+00
+8.6000E-03,+2.9492855E+00
+8.8000E-03,+2.9555669E+00
+9.0000E-03,+2.9623508E+00
+9.2000E-03,+2.9676272E+00
+9.4000E-03,+2.9716473E+00
+9.6000E-03,+2.9769237E+00
+9.8000E-03,+2.9809438E+00
+10.0000E-03,+2.9862201E+00
+10.2000E-03,+2.9877277E+00
+10.4000E-03,+2.9912453E+00
+10.6000E-03,+2.9945116E+00
+10.8000E-03,+2.9972754E+00
+11.0000E-03,+3.0000392E+00
+11.2000E-03,+3.0038081E+00
+11.4000E-03,+3.0050644E+00
+11.6000E-03,+3.0075769E+00
+11.8000E-03,+3.0088332E+00
+12.0000E-03,+3.0100895E+00
+12.2000E-03,+3.0113458E+00
+12.4000E-03,+3.0118483E+00
+12.6000E-03,+3.0126021E+00
+12.8000E-03,+3.0126021E+00
+13.0000E-03,+3.0126021E+00
+13.2000E-03,+3.0126021E+00
+13.4000E-03,+3.0120995E+00
+13.6000E-03,+3.0113458E+00
+13.8000E-03,+3.0100895E+00
+14.0000E-03,+3.0100895E+00
+14.2000E-03,+3.0085820E+00
+14.4000E-03,+3.0063206E+00
+14.6000E-03,+3.0038081E+00
+14.8000E-03,+3.0002905E+00
+15.0000E-03,+2.9987830E+00
+15.2000E-03,+2.9960191E+00
+15.4000E-03,+2.9919990E+00
+15.6000E-03,+2.9892352E+00
+15.8000E-03,+2.9864714E+00
+16.0000E-03,+2.9824513E+00
+16.2000E-03,+2.9784312E+00
+16.4000E-03,+2.9726523E+00
+16.6000E-03,+2.9683810E+00
+16.8000E-03,+2.9628533E+00
+17.0000E-03,+2.9560694E+00
+17.2000E-03,+2.9517980E+00
+17.4000E-03,+2.9462704E+00
+17.6000E-03,+2.9394865E+00
+17.8000E-03,+2.9327026E+00
+18.0000E-03,+2.9259186E+00
+18.2000E-03,+2.9203910E+00
+18.4000E-03,+2.9118483E+00
+18.6000E-03,+2.9050644E+00
+18.8000E-03,+2.8975267E+00
+19.0000E-03,+2.8894865E+00
+19.2000E-03,+2.8814463E+00
+19.4000E-03,+2.8721498E+00
+19.6000E-03,+2.8641096E+00
+19.8000E-03,+2.8548131E+00
+20.0000E-03,+2.8455166E+00
+20.2000E-03,+2.8349639E+00
+20.4000E-03,+2.8256674E+00
+20.6000E-03,+2.8151146E+00
+20.8000E-03,+2.8045619E+00
+21.0000E-03,+2.7927528E+00
+21.2000E-03,+2.7824513E+00
+21.4000E-03,+2.7718985E+00
+21.6000E-03,+2.7603408E+00
+21.8000E-03,+2.7482805E+00
+22.0000E-03,+2.7362202E+00
+22.2000E-03,+2.7229036E+00
+22.4000E-03,+2.7103408E+00
+22.6000E-03,+2.6975267E+00
+22.8000E-03,+2.6852151E+00
+23.0000E-03,+2.6708935E+00
+23.2000E-03,+2.6573257E+00
+23.4000E-03,+2.6425016E+00
+23.6000E-03,+2.6271749E+00
+23.8000E-03,+2.6128533E+00
+24.0000E-03,+2.5992855E+00
+24.2000E-03,+2.5847126E+00
+24.4000E-03,+2.5683810E+00
+24.6000E-03,+2.5523006E+00
+24.8000E-03,+2.5362202E+00
+25.0000E-03,+2.5201398E+00
+25.2000E-03,+2.5040593E+00
+25.4000E-03,+2.4874764E+00
+25.6000E-03,+2.4698885E+00
+25.8000E-03,+2.4545619E+00
+26.0000E-03,+2.4372252E+00
+26.2000E-03,+2.4208935E+00
+26.4000E-03,+2.4025518E+00
+26.6000E-03,+2.3839588E+00
+26.8000E-03,+2.3668734E+00
+27.0000E-03,+2.3505418E+00
+27.2000E-03,+2.3342101E+00
+27.4000E-03,+2.3166222E+00
+27.6000E-03,+2.2965217E+00
+27.8000E-03,+2.2799387E+00
+28.0000E-03,+2.2613458E+00
+28.2000E-03,+2.2442604E+00
+28.4000E-03,+2.2274262E+00
+28.6000E-03,+2.2093357E+00
+28.8000E-03,+2.1922503E+00
+29.0000E-03,+2.1746624E+00
+29.2000E-03,+2.1570744E+00
+29.4000E-03,+2.1399890E+00
+29.6000E-03,+2.1226523E+00
+29.8000E-03,+2.1040594E+00
+30.0000E-03,+2.0867227E+00
+30.2000E-03,+2.0681297E+00
+30.4000E-03,+2.0507930E+00
+30.6000E-03,+2.0339589E+00
+30.8000E-03,+2.0161197E+00
+31.0000E-03,+1.9987830E+00
+31.2000E-03,+1.9799388E+00
+31.4000E-03,+1.9636071E+00
+31.6000E-03,+1.9455166E+00
+31.8000E-03,+1.9271749E+00
+32.0000E-03,+1.9083307E+00
+32.2000E-03,+1.8922503E+00
+32.4000E-03,+1.8744111E+00
+32.6000E-03,+1.8575769E+00
+32.8000E-03,+1.8392352E+00
+33.0000E-03,+1.8216473E+00
+33.2000E-03,+1.8043106E+00
+33.4000E-03,+1.7869739E+00
+33.6000E-03,+1.7701398E+00
+33.8000E-03,+1.7510443E+00
+34.0000E-03,+1.7349639E+00
+34.2000E-03,+1.7163709E+00
+34.4000E-03,+1.6990342E+00
+34.6000E-03,+1.6809438E+00
+34.8000E-03,+1.6631046E+00
+35.0000E-03,+1.6470242E+00
+35.2000E-03,+1.6284312E+00
+35.4000E-03,+1.6118483E+00
+35.6000E-03,+1.5937579E+00
+35.8000E-03,+1.5771749E+00
+36.0000E-03,+1.5590845E+00
+36.2000E-03,+1.5430041E+00
+36.4000E-03,+1.5244111E+00
+36.6000E-03,+1.5075769E+00
+36.8000E-03,+1.4899890E+00
+37.0000E-03,+1.4749136E+00
+37.2000E-03,+1.4563207E+00
+37.4000E-03,+1.4402403E+00
+37.6000E-03,+1.4229036E+00
+37.8000E-03,+1.4045619E+00
+38.0000E-03,+1.3869739E+00
+38.2000E-03,+1.3696373E+00
+38.4000E-03,+1.3517981E+00
+38.6000E-03,+1.3342101E+00
+38.8000E-03,+1.3161197E+00
+39.0000E-03,+1.2990342E+00
+39.2000E-03,+1.2816976E+00
+39.4000E-03,+1.2638584E+00
+39.6000E-03,+1.2462704E+00
+39.8000E-03,+1.2274262E+00
+40.0000E-03,+1.2098383E+00
+40.2000E-03,+1.1935066E+00
+40.4000E-03,+1.1764212E+00
+40.6000E-03,+1.1583307E+00
+40.8000E-03,+1.1407428E+00
+41.0000E-03,+1.1231548E+00
+41.2000E-03,+1.1055669E+00
+41.4000E-03,+1.0884815E+00
+41.6000E-03,+1.0698885E+00
+41.8000E-03,+1.0525518E+00
+42.0000E-03,+1.0352151E+00
+42.2000E-03,+1.0166222E+00
+42.4000E-03,+999.2855E-03
+42.6000E-03,+981.6976E-03
+42.8000E-03,+964.6121E-03
+43.0000E-03,+947.2754E-03
+43.2000E-03,+929.6875E-03
+43.4000E-03,+911.3458E-03
+43.6000E-03,+894.7629E-03
+43.8000E-03,+876.9237E-03
+44.0000E-03,+859.3357E-03
+44.2000E-03,+841.9991E-03
+44.4000E-03,+824.1599E-03
+44.6000E-03,+809.0845E-03
+44.8000E-03,+792.2503E-03
+45.0000E-03,+777.6775E-03
+45.2000E-03,+761.5971E-03
+45.4000E-03,+745.5167E-03
+45.6000E-03,+730.1900E-03
+45.8000E-03,+715.6172E-03
+46.0000E-03,+699.7880E-03
+46.2000E-03,+686.4714E-03
+46.4000E-03,+674.4111E-03
+46.6000E-03,+659.0845E-03
+46.8000E-03,+646.7729E-03
+47.0000E-03,+634.4614E-03
+47.2000E-03,+621.1448E-03
+47.4000E-03,+610.3408E-03
+47.6000E-03,+598.2805E-03
+47.8000E-03,+587.4765E-03
+48.0000E-03,+575.4162E-03
+48.2000E-03,+564.6121E-03
+48.4000E-03,+554.3106E-03
+48.6000E-03,+544.2604E-03
+48.8000E-03,+535.4664E-03
+49.0000E-03,+526.4212E-03
+49.2000E-03,+515.8684E-03
+49.4000E-03,+507.3257E-03
+49.6000E-03,+498.0292E-03
+49.8000E-03,+491.7478E-03
+50.0000E-03,+483.7076E-03
+50.2000E-03,+476.9237E-03
+50.4000E-03,+469.3860E-03
+50.6000E-03,+462.8533E-03
+50.8000E-03,+456.3207E-03
+51.0000E-03,+449.7880E-03
+51.2000E-03,+443.0041E-03
+51.4000E-03,+437.9790E-03
+51.6000E-03,+432.7026E-03
+51.8000E-03,+428.9337E-03
+52.0000E-03,+423.4061E-03
+52.2000E-03,+419.1347E-03
+52.4000E-03,+414.1096E-03
+52.6000E-03,+410.5920E-03
+52.8000E-03,+408.5820E-03
+53.0000E-03,+405.8182E-03
+53.2000E-03,+401.7981E-03
+53.4000E-03,+399.5368E-03
+53.6000E-03,+398.2805E-03
+53.8000E-03,+395.7679E-03
+54.0000E-03,+394.5116E-03
+54.2000E-03,+393.0041E-03
+54.4000E-03,+391.9991E-03
+54.6000E-03,+391.9991E-03
+54.8000E-03,+391.9991E-03
+55.0000E-03,+391.9991E-03
+55.2000E-03,+391.9991E-03
+55.4000E-03,+392.5016E-03
+55.6000E-03,+393.2554E-03
+55.8000E-03,+395.7679E-03
+56.0000E-03,+398.2805E-03
+56.2000E-03,+398.2805E-03
+56.4000E-03,+401.2956E-03
+56.6000E-03,+403.3056E-03
+56.8000E-03,+407.0744E-03
+57.0000E-03,+409.5870E-03
+57.2000E-03,+413.6071E-03
+57.4000E-03,+417.1247E-03
+57.6000E-03,+421.6473E-03
+57.8000E-03,+426.9237E-03
+58.0000E-03,+432.2001E-03
+58.2000E-03,+436.4714E-03
+58.4000E-03,+441.2453E-03
+58.6000E-03,+447.5267E-03
+58.8000E-03,+453.3056E-03
+59.0000E-03,+459.8383E-03
+59.2000E-03,+466.6222E-03
+59.4000E-03,+472.9036E-03
+59.6000E-03,+479.6875E-03
+59.8000E-03,+487.9790E-03
+60.0000E-03,+495.0141E-03
+60.2000E-03,+503.3056E-03
+60.4000E-03,+512.3508E-03
+60.6000E-03,+522.4011E-03
+60.8000E-03,+532.2001E-03
+61.0000E-03,+541.4966E-03
+61.2000E-03,+551.0443E-03
+61.4000E-03,+560.0895E-03
+61.6000E-03,+571.3961E-03
+61.8000E-03,+583.2051E-03
+62.0000E-03,+593.0041E-03
+62.2000E-03,+604.0594E-03
+62.4000E-03,+615.8684E-03
+62.6000E-03,+627.9287E-03
+62.8000E-03,+639.9890E-03
+63.0000E-03,+653.3056E-03
+63.2000E-03,+664.1096E-03
+63.4000E-03,+678.1800E-03
+63.6000E-03,+690.2403E-03
+63.8000E-03,+701.2955E-03
+64.0000E-03,+714.8634E-03
+64.2000E-03,+729.4363E-03
+64.4000E-03,+742.7528E-03
+64.6000E-03,+756.8232E-03
+64.8000E-03,+770.3910E-03
+65.0000E-03,+783.9589E-03
+65.2000E-03,+797.5267E-03
+65.4000E-03,+811.8483E-03
+65.6000E-03,+825.4162E-03
+65.8000E-03,+840.4915E-03
+66.0000E-03,+855.5669E-03
+66.2000E-03,+870.1398E-03
+66.4000E-03,+883.9589E-03
+66.6000E-03,+898.0292E-03
+66.8000E-03,+911.3458E-03
+67.0000E-03,+924.6624E-03
+67.2000E-03,+939.4865E-03
+67.4000E-03,+953.8081E-03
+67.6000E-03,+966.6222E-03
+67.8000E-03,+979.1850E-03
+68.0000E-03,+991.2453E-03
+68.2000E-03,+1.0058182E+00
+68.4000E-03,+1.0178785E+00
+68.6000E-03,+1.0299388E+00
+68.8000E-03,+1.0422503E+00
+69.0000E-03,+1.0553156E+00
+69.2000E-03,+1.0673759E+00
+69.4000E-03,+1.0794362E+00
+69.6000E-03,+1.0904915E+00
+69.8000E-03,+1.1023006E+00
+70.0000E-03,+1.1143609E+00
+70.2000E-03,+1.1239086E+00
+70.4000E-03,+1.1354664E+00
+70.6000E-03,+1.1462704E+00
+70.8000E-03,+1.1565719E+00
+71.0000E-03,+1.1683810E+00
+71.2000E-03,+1.1776775E+00
+71.4000E-03,+1.1874764E+00
+71.6000E-03,+1.1975267E+00
+71.8000E-03,+1.2068232E+00
+72.0000E-03,+1.2173759E+00
+72.2000E-03,+1.2256674E+00
+72.4000E-03,+1.2372252E+00
+72.6000E-03,+1.2465217E+00
+72.8000E-03,+1.2558182E+00
+73.0000E-03,+1.2638584E+00
+73.2000E-03,+1.2744111E+00
+73.4000E-03,+1.2811950E+00
+73.6000E-03,+1.2892352E+00
+73.8000E-03,+1.2987830E+00
+74.0000E-03,+1.3053156E+00
+74.2000E-03,+1.3146121E+00
+74.4000E-03,+1.3213960E+00
+74.6000E-03,+1.3294362E+00
+74.8000E-03,+1.3374764E+00
+75.0000E-03,+1.3442604E+00
+75.2000E-03,+1.3523006E+00
+75.4000E-03,+1.3590845E+00
+75.6000E-03,+1.3658684E+00
+75.8000E-03,+1.3729036E+00
+76.0000E-03,+1.3794362E+00
+76.2000E-03,+1.3847126E+00
+76.4000E-03,+1.3930041E+00
+76.6000E-03,+1.3977780E+00
+76.8000E-03,+1.4028031E+00
+77.0000E-03,+1.4108433E+00
+77.2000E-03,+1.4161197E+00
+77.4000E-03,+1.4201398E+00
+77.6000E-03,+1.4254161E+00
+77.8000E-03,+1.4306925E+00
+78.0000E-03,+1.4359689E+00
+78.2000E-03,+1.4397378E+00
+78.4000E-03,+1.4440091E+00
+78.6000E-03,+1.4480292E+00
+78.8000E-03,+1.4533056E+00
+79.0000E-03,+1.4573257E+00
+79.2000E-03,+1.4613458E+00
+79.4000E-03,+1.4641096E+00
+79.6000E-03,+1.4681297E+00
+79.8000E-03,+1.4721498E+00
+80.0000E-03,+1.4749136E+00
+80.2000E-03,+1.4789337E+00
+80.4000E-03,+1.4811950E+00
+80.6000E-03,+1.4844614E+00
+80.8000E-03,+1.4872252E+00
+81.0000E-03,+1.4887327E+00
+81.2000E-03,+1.4927528E+00
+81.4000E-03,+1.4950141E+00
+81.6000E-03,+1.4957679E+00
+81.8000E-03,+1.4985317E+00
+82.0000E-03,+1.5000393E+00
+82.2000E-03,+1.5012955E+00
+82.4000E-03,+1.5025518E+00
+82.6000E-03,+1.5025518E+00
+82.8000E-03,+1.5048131E+00
+83.0000E-03,+1.5050644E+00
+83.2000E-03,+1.5063207E+00
+83.4000E-03,+1.5063207E+00
+83.6000E-03,+1.5075769E+00
+83.8000E-03,+1.5085820E+00
+84.0000E-03,+1.5075769E+00
+84.2000E-03,+1.5075769E+00
+84.4000E-03,+1.5075769E+00
+84.6000E-03,+1.5068232E+00
+84.8000E-03,+1.5075769E+00
+85.0000E-03,+1.5075769E+00
+85.2000E-03,+1.5065719E+00
+85.4000E-03,+1.5075769E+00
+85.6000E-03,+1.5075769E+00
+85.8000E-03,+1.5075769E+00
+86.0000E-03,+1.5088332E+00
+86.2000E-03,+1.5085820E+00
+86.4000E-03,+1.5080795E+00
+86.6000E-03,+1.5075769E+00
+86.8000E-03,+1.5075769E+00
+87.0000E-03,+1.5075769E+00
+87.2000E-03,+1.5075769E+00
+87.4000E-03,+1.5088332E+00
+87.6000E-03,+1.5093357E+00
+87.8000E-03,+1.5088332E+00
+88.0000E-03,+1.5088332E+00
+88.2000E-03,+1.5090845E+00
+88.4000E-03,+1.5083307E+00
+88.6000E-03,+1.5075769E+00
+88.8000E-03,+1.5078282E+00
+89.0000E-03,+1.5088332E+00
+89.2000E-03,+1.5078282E+00
+89.4000E-03,+1.5075769E+00
+89.6000E-03,+1.5088332E+00
+89.8000E-03,+1.5075769E+00
+90.0000E-03,+1.5088332E+00
+90.2000E-03,+1.5088332E+00
+90.4000E-03,+1.5075769E+00
+90.6000E-03,+1.5088332E+00
+90.8000E-03,+1.5088332E+00
+91.0000E-03,+1.5088332E+00
+91.2000E-03,+1.5100895E+00
+91.4000E-03,+1.5100895E+00
+91.6000E-03,+1.5108433E+00
+91.8000E-03,+1.5103408E+00
+92.0000E-03,+1.5100895E+00
+92.2000E-03,+1.5100895E+00
+92.4000E-03,+1.5108433E+00
+92.6000E-03,+1.5100895E+00
+92.8000E-03,+1.5100895E+00
+93.0000E-03,+1.5100895E+00
+93.2000E-03,+1.5113458E+00
+93.4000E-03,+1.5100895E+00
+93.6000E-03,+1.5108433E+00
+93.8000E-03,+1.5103408E+00
+94.0000E-03,+1.5100895E+00
+94.2000E-03,+1.5113458E+00
+94.4000E-03,+1.5113458E+00
+94.6000E-03,+1.5113458E+00
+94.8000E-03,+1.5113458E+00
+95.0000E-03,+1.5113458E+00
+95.2000E-03,+1.5100895E+00
+95.4000E-03,+1.5100895E+00
+95.6000E-03,+1.5108433E+00
+95.8000E-03,+1.5113458E+00
+96.0000E-03,+1.5113458E+00
+96.2000E-03,+1.5103408E+00
+96.4000E-03,+1.5113458E+00
+96.6000E-03,+1.5108433E+00
+96.8000E-03,+1.5110945E+00
+97.0000E-03,+1.5113458E+00
+97.2000E-03,+1.5100895E+00
+97.4000E-03,+1.5108433E+00
+97.6000E-03,+1.5105920E+00
+97.8000E-03,+1.5113458E+00
+98.0000E-03,+1.5113458E+00
+98.2000E-03,+1.5113458E+00
+98.4000E-03,+1.5100895E+00
+98.6000E-03,+1.5113458E+00
+98.8000E-03,+1.5103408E+00
+99.0000E-03,+1.5126021E+00
+99.2000E-03,+1.5113458E+00
+99.4000E-03,+1.5113458E+00
+99.6000E-03,+1.5113458E+00
+99.8000E-03,+1.5115970E+00
+100.0000E-03,+1.5113458E+00
+100.2000E-03,+1.5126021E+00
+100.4000E-03,+1.5120996E+00
+100.6000E-03,+1.5126021E+00
+100.8000E-03,+1.5126021E+00
+101.0000E-03,+1.5126021E+00
+101.2000E-03,+1.5123508E+00
+101.4000E-03,+1.5113458E+00
+101.6000E-03,+1.5113458E+00
+101.8000E-03,+1.5126021E+00
+102.0000E-03,+1.5113458E+00
+102.2000E-03,+1.5126021E+00
+102.4000E-03,+1.5126021E+00
+102.6000E-03,+1.5126021E+00
+102.8000E-03,+1.5126021E+00
+103.0000E-03,+1.5113458E+00
+103.2000E-03,+1.5126021E+00
+103.4000E-03,+1.5113458E+00
+103.6000E-03,+1.5113458E+00
+103.8000E-03,+1.5126021E+00
+104.0000E-03,+1.5126021E+00
+104.2000E-03,+1.5126021E+00
+104.4000E-03,+1.5126021E+00
+104.6000E-03,+1.5133558E+00
+104.8000E-03,+1.5126021E+00
+105.0000E-03,+1.5126021E+00
+105.2000E-03,+1.5138584E+00
+105.4000E-03,+1.5126021E+00
+105.6000E-03,+1.5126021E+00
+105.8000E-03,+1.5126021E+00
+106.0000E-03,+1.5126021E+00
+106.2000E-03,+1.5136071E+00
+106.4000E-03,+1.5126021E+00
+106.6000E-03,+1.5138584E+00
+106.8000E-03,+1.5128533E+00
+107.0000E-03,+1.5126021E+00
+107.2000E-03,+1.5138584E+00
+107.4000E-03,+1.5146121E+00
+107.6000E-03,+1.5138584E+00
+107.8000E-03,+1.5136071E+00
+108.0000E-03,+1.5138584E+00
+108.2000E-03,+1.5138584E+00
+108.4000E-03,+1.5138584E+00
+108.6000E-03,+1.5133558E+00
+108.8000E-03,+1.5141096E+00
+109.0000E-03,+1.5138584E+00
+109.2000E-03,+1.5138584E+00
+109.4000E-03,+1.5151146E+00
+109.6000E-03,+1.5138584E+00
+109.8000E-03,+1.5148634E+00
+110.0000E-03,+1.5138584E+00
+110.2000E-03,+1.5151146E+00
+110.4000E-03,+1.5151146E+00
+110.6000E-03,+1.5151146E+00
+110.8000E-03,+1.5151146E+00
+111.0000E-03,+1.5151146E+00
+111.2000E-03,+1.5151146E+00
+111.4000E-03,+1.5151146E+00
+111.6000E-03,+1.5146121E+00
+111.8000E-03,+1.5141096E+00
+112.0000E-03,+1.5151146E+00
+112.2000E-03,+1.5161197E+00
+112.4000E-03,+1.5151146E+00
+112.6000E-03,+1.5151146E+00
+112.8000E-03,+1.5151146E+00
+113.0000E-03,+1.5151146E+00
+113.2000E-03,+1.5151146E+00
+113.4000E-03,+1.5151146E+00
+113.6000E-03,+1.5151146E+00
+113.8000E-03,+1.5151146E+00
+114.0000E-03,+1.5151146E+00
+114.2000E-03,+1.5151146E+00
+114.4000E-03,+1.5158684E+00
+114.6000E-03,+1.5163709E+00
+114.8000E-03,+1.5163709E+00
+115.0000E-03,+1.5163709E+00
+115.2000E-03,+1.5151146E+00
+115.4000E-03,+1.5163709E+00
+115.6000E-03,+1.5163709E+00
+115.8000E-03,+1.5161197E+00
+116.0000E-03,+1.5163709E+00
+116.2000E-03,+1.5151146E+00
+116.4000E-03,+1.5151146E+00
+116.6000E-03,+1.5163709E+00
+116.8000E-03,+1.5173759E+00
+117.0000E-03,+1.5163709E+00
+117.2000E-03,+1.5163709E+00
+117.4000E-03,+1.5163709E+00
+117.6000E-03,+1.5163709E+00
+117.8000E-03,+1.5163709E+00
+118.0000E-03,+1.5163709E+00
+118.2000E-03,+1.5153659E+00
+118.4000E-03,+1.5158684E+00
+118.6000E-03,+1.5163709E+00
+118.8000E-03,+1.5163709E+00
+119.0000E-03,+1.5163709E+00
+119.2000E-03,+1.5166222E+00
+119.4000E-03,+1.5163709E+00
+119.6000E-03,+1.5168734E+00
+119.8000E-03,+1.5166222E+00
+120.0000E-03,+1.5163709E+00
+120.2000E-03,+1.5163709E+00
+120.4000E-03,+1.5163709E+00
+120.6000E-03,+1.5163709E+00
+120.8000E-03,+1.5173759E+00
+121.0000E-03,+1.5176272E+00
+121.2000E-03,+1.5163709E+00
+121.4000E-03,+1.5168734E+00
+121.6000E-03,+1.5168734E+00
+121.8000E-03,+1.5163709E+00
+122.0000E-03,+1.5176272E+00
+122.2000E-03,+1.5173759E+00
+122.4000E-03,+1.5163709E+00
+122.6000E-03,+1.5176272E+00
+122.8000E-03,+1.5176272E+00
+123.0000E-03,+1.5176272E+00
+123.2000E-03,+1.5178785E+00
+123.4000E-03,+1.5176272E+00
+123.6000E-03,+1.5176272E+00
+123.8000E-03,+1.5176272E+00
+124.0000E-03,+1.5176272E+00
+124.2000E-03,+1.5176272E+00
+124.4000E-03,+1.5171247E+00
+124.6000E-03,+1.5176272E+00
+124.8000E-03,+1.5176272E+00
+125.0000E-03,+1.5163709E+00
+125.2000E-03,+1.5188835E+00
+125.4000E-03,+1.5181297E+00
+125.6000E-03,+1.5188835E+00
+125.8000E-03,+1.5176272E+00
+126.0000E-03,+1.5176272E+00
+126.2000E-03,+1.5188835E+00
+126.4000E-03,+1.5183810E+00
+126.6000E-03,+1.5188835E+00
+126.8000E-03,+1.5176272E+00
+127.0000E-03,+1.5188835E+00
+127.2000E-03,+1.5188835E+00
+127.4000E-03,+1.5183810E+00
+127.6000E-03,+1.5188835E+00
+127.8000E-03,+1.5178785E+00
+128.0000E-03,+1.5188835E+00
+128.2000E-03,+1.5178785E+00
+128.4000E-03,+1.5176272E+00
+128.6000E-03,+1.5181297E+00
+128.8000E-03,+1.5188835E+00
+129.0000E-03,+1.5188835E+00
+129.2000E-03,+1.5186322E+00
+129.4000E-03,+1.5181297E+00
+129.6000E-03,+1.5181297E+00
+129.8000E-03,+1.5188835E+00
+130.0000E-03,+1.5188835E+00
+130.2000E-03,+1.5176272E+00
+130.4000E-03,+1.5183810E+00
+130.6000E-03,+1.5188835E+00
+130.8000E-03,+1.5178785E+00
+131.0000E-03,+1.5176272E+00
+131.2000E-03,+1.5188835E+00
+131.4000E-03,+1.5196372E+00
+131.6000E-03,+1.5188835E+00
+131.8000E-03,+1.5188835E+00
+132.0000E-03,+1.5188835E+00
+132.2000E-03,+1.5188835E+00
+132.4000E-03,+1.5196372E+00
+132.6000E-03,+1.5188835E+00
+132.8000E-03,+1.5191347E+00
+133.0000E-03,+1.5188835E+00
+133.2000E-03,+1.5188835E+00
+133.4000E-03,+1.5188835E+00
+133.6000E-03,+1.5188835E+00
+133.8000E-03,+1.5188835E+00
+134.0000E-03,+1.5188835E+00
+134.2000E-03,+1.5188835E+00
+134.4000E-03,+1.5188835E+00
+134.6000E-03,+1.5188835E+00
+134.8000E-03,+1.5188835E+00
+135.0000E-03,+1.5188835E+00
+135.2000E-03,+1.5191347E+00
+135.4000E-03,+1.5201398E+00
+135.6000E-03,+1.5196372E+00
+135.8000E-03,+1.5201398E+00
+136.0000E-03,+1.5188835E+00
+136.2000E-03,+1.5201398E+00
+136.4000E-03,+1.5201398E+00
+136.6000E-03,+1.5201398E+00
+136.8000E-03,+1.5198885E+00
+137.0000E-03,+1.5201398E+00
+137.2000E-03,+1.5191347E+00
+137.4000E-03,+1.5201398E+00
+137.6000E-03,+1.5196372E+00
+137.8000E-03,+1.5201398E+00
+138.0000E-03,+1.5201398E+00
+138.2000E-03,+1.5201398E+00
+138.4000E-03,+1.5201398E+00
+138.6000E-03,+1.5201398E+00
+138.8000E-03,+1.5191347E+00
+139.0000E-03,+1.5188835E+00
+139.2000E-03,+1.5191347E+00
+139.4000E-03,+1.5201398E+00
+139.6000E-03,+1.5201398E+00
+139.8000E-03,+1.5201398E+00
+140.0000E-03,+1.5201398E+00
+140.2000E-03,+1.5201398E+00
+140.4000E-03,+1.5201398E+00
+140.6000E-03,+1.5201398E+00
+140.8000E-03,+1.5201398E+00
+141.0000E-03,+1.5201398E+00
+141.2000E-03,+1.5203910E+00
+141.4000E-03,+1.5201398E+00
+141.6000E-03,+1.5201398E+00
+141.8000E-03,+1.5201398E+00
+142.0000E-03,+1.5213960E+00
+142.2000E-03,+1.5201398E+00
+142.4000E-03,+1.5206423E+00
+142.6000E-03,+1.5213960E+00
+142.8000E-03,+1.5201398E+00
+143.0000E-03,+1.5201398E+00
+143.2000E-03,+1.5201398E+00
+143.4000E-03,+1.5201398E+00
+143.6000E-03,+1.5201398E+00
+143.8000E-03,+1.5201398E+00
+144.0000E-03,+1.5213960E+00
+144.2000E-03,+1.5213960E+00
+144.4000E-03,+1.5208935E+00
+144.6000E-03,+1.5213960E+00
+144.8000E-03,+1.5211448E+00
+145.0000E-03,+1.5201398E+00
+145.2000E-03,+1.5213960E+00
+145.4000E-03,+1.5213960E+00
+145.6000E-03,+1.5213960E+00
+145.8000E-03,+1.5213960E+00
+146.0000E-03,+1.5226523E+00
+146.2000E-03,+1.5213960E+00
+146.4000E-03,+1.5213960E+00
+146.6000E-03,+1.5213960E+00
+146.8000E-03,+1.5213960E+00
+147.0000E-03,+1.5213960E+00
+147.2000E-03,+1.5213960E+00
+147.4000E-03,+1.5206423E+00
+147.6000E-03,+1.5201398E+00
+147.8000E-03,+1.5213960E+00
+148.0000E-03,+1.5213960E+00
+148.2000E-03,+1.5213960E+00
+148.4000E-03,+1.5218986E+00
+148.6000E-03,+1.5226523E+00
+148.8000E-03,+1.5216473E+00
+149.0000E-03,+1.5213960E+00
+149.2000E-03,+1.5224011E+00
+149.4000E-03,+1.5221498E+00
+149.6000E-03,+1.5213960E+00
+149.8000E-03,+1.5216473E+00
+150.0000E-03,+1.5226523E+00
+150.2000E-03,+1.5226523E+00
+150.4000E-03,+1.5218986E+00
+150.6000E-03,+1.5213960E+00
+150.8000E-03,+1.5213960E+00
+151.0000E-03,+1.5226523E+00
+151.2000E-03,+1.5226523E+00
+151.4000E-03,+1.5226523E+00
+151.6000E-03,+1.5213960E+00
+151.8000E-03,+1.5216473E+00
+152.0000E-03,+1.5226523E+00
+152.2000E-03,+1.5226523E+00
+152.4000E-03,+1.5231548E+00
+152.6000E-03,+1.5226523E+00
+152.8000E-03,+1.5226523E+00
+153.0000E-03,+1.5226523E+00
+153.2000E-03,+1.5226523E+00
+153.4000E-03,+1.5226523E+00
+153.6000E-03,+1.5226523E+00
+153.8000E-03,+1.5226523E+00
+154.0000E-03,+1.5239086E+00
+154.2000E-03,+1.5226523E+00
+154.4000E-03,+1.5234061E+00
+154.6000E-03,+1.5226523E+00
+154.8000E-03,+1.5239086E+00
+155.0000E-03,+1.5226523E+00
+155.2000E-03,+1.5241599E+00
+155.4000E-03,+1.5234061E+00
+155.6000E-03,+1.5239086E+00
+155.8000E-03,+1.5239086E+00
+156.0000E-03,+1.5239086E+00
+156.2000E-03,+1.5239086E+00
+156.4000E-03,+1.5234061E+00
+156.6000E-03,+1.5234061E+00
+156.8000E-03,+1.5239086E+00
+157.0000E-03,+1.5239086E+00
+157.2000E-03,+1.5239086E+00
+157.4000E-03,+1.5244111E+00
+157.6000E-03,+1.5239086E+00
+157.8000E-03,+1.5239086E+00
+158.0000E-03,+1.5239086E+00
+158.2000E-03,+1.5229036E+00
+158.4000E-03,+1.5239086E+00
+158.6000E-03,+1.5246624E+00
+158.8000E-03,+1.5239086E+00
+159.0000E-03,+1.5239086E+00
+159.2000E-03,+1.5251649E+00
+159.4000E-03,+1.5251649E+00
+159.6000E-03,+1.5239086E+00
+159.8000E-03,+1.5239086E+00
+160.0000E-03,+1.5239086E+00
+160.2000E-03,+1.5241599E+00
+160.4000E-03,+1.5251649E+00
+160.6000E-03,+1.5239086E+00
+160.8000E-03,+1.5239086E+00
+161.0000E-03,+1.5239086E+00
+161.2000E-03,+1.5241599E+00
+161.4000E-03,+1.5239086E+00
+161.6000E-03,+1.5239086E+00
+161.8000E-03,+1.5251649E+00
+162.0000E-03,+1.5239086E+00
+162.2000E-03,+1.5251649E+00
+162.4000E-03,+1.5251649E+00
+162.6000E-03,+1.5251649E+00
+162.8000E-03,+1.5261699E+00
+163.0000E-03,+1.5251649E+00
+163.2000E-03,+1.5261699E+00
+163.4000E-03,+1.5251649E+00
+163.6000E-03,+1.5251649E+00
+163.8000E-03,+1.5241599E+00
+164.0000E-03,+1.5251649E+00
+164.2000E-03,+1.5254161E+00
+164.4000E-03,+1.5251649E+00
+164.6000E-03,+1.5264212E+00
+164.8000E-03,+1.5264212E+00
+165.0000E-03,+1.5264212E+00
+165.2000E-03,+1.5264212E+00
+165.4000E-03,+1.5264212E+00
+165.6000E-03,+1.5264212E+00
+165.8000E-03,+1.5264212E+00
+166.0000E-03,+1.5264212E+00
+166.2000E-03,+1.5264212E+00
+166.4000E-03,+1.5259187E+00
+166.6000E-03,+1.5251649E+00
+166.8000E-03,+1.5264212E+00
+167.0000E-03,+1.5264212E+00
+167.2000E-03,+1.5274262E+00
+167.4000E-03,+1.5264212E+00
+167.6000E-03,+1.5264212E+00
+167.8000E-03,+1.5264212E+00
+168.0000E-03,+1.5264212E+00
+168.2000E-03,+1.5264212E+00
+168.4000E-03,+1.5264212E+00
+168.6000E-03,+1.5271749E+00
+168.8000E-03,+1.5264212E+00
+169.0000E-03,+1.5264212E+00
+169.2000E-03,+1.5274262E+00
+169.4000E-03,+1.5264212E+00
+169.6000E-03,+1.5264212E+00
+169.8000E-03,+1.5261699E+00
+170.0000E-03,+1.5276774E+00
+170.2000E-03,+1.5264212E+00
+170.4000E-03,+1.5264212E+00
+170.6000E-03,+1.5264212E+00
+170.8000E-03,+1.5264212E+00
+171.0000E-03,+1.5264212E+00
+171.2000E-03,+1.5266724E+00
+171.4000E-03,+1.5264212E+00
+171.6000E-03,+1.5271749E+00
+171.8000E-03,+1.5276774E+00
+172.0000E-03,+1.5276774E+00
+172.2000E-03,+1.5276774E+00
+172.4000E-03,+1.5264212E+00
+172.6000E-03,+1.5276774E+00
+172.8000E-03,+1.5276774E+00
+173.0000E-03,+1.5276774E+00
+173.2000E-03,+1.5289337E+00
+173.4000E-03,+1.5289337E+00
+173.6000E-03,+1.5289337E+00
+173.8000E-03,+1.5289337E+00
+174.0000E-03,+1.5289337E+00
+174.2000E-03,+1.5291850E+00
+174.4000E-03,+1.5289337E+00
+174.6000E-03,+1.5289337E+00
+174.8000E-03,+1.5289337E+00
+175.0000E-03,+1.5276774E+00
+175.2000E-03,+1.5289337E+00
+175.4000E-03,+1.5289337E+00
+175.6000E-03,+1.5284312E+00
+175.8000E-03,+1.5286825E+00
+176.0000E-03,+1.5289337E+00
+176.2000E-03,+1.5291850E+00
+176.4000E-03,+1.5289337E+00
+176.6000E-03,+1.5289337E+00
+176.8000E-03,+1.5289337E+00
+177.0000E-03,+1.5289337E+00
+177.2000E-03,+1.5291850E+00
+177.4000E-03,+1.5294362E+00
+177.6000E-03,+1.5296875E+00
+177.8000E-03,+1.5289337E+00
+178.0000E-03,+1.5301900E+00
+178.2000E-03,+1.5291850E+00
+178.4000E-03,+1.5301900E+00
+178.6000E-03,+1.5289337E+00
+178.8000E-03,+1.5299388E+00
+179.0000E-03,+1.5301900E+00
+179.2000E-03,+1.5291850E+00
+179.4000E-03,+1.5301900E+00
+179.6000E-03,+1.5301900E+00
+179.8000E-03,+1.5311950E+00
+180.0000E-03,+1.5301900E+00
+180.2000E-03,+1.5301900E+00
+180.4000E-03,+1.5294362E+00
+180.6000E-03,+1.5294362E+00
+180.8000E-03,+1.5301900E+00
+181.0000E-03,+1.5289337E+00
+181.2000E-03,+1.5289337E+00
+181.4000E-03,+1.5301900E+00
+181.6000E-03,+1.5301900E+00
+181.8000E-03,+1.5299388E+00
+182.0000E-03,+1.5301900E+00
+182.2000E-03,+1.5291850E+00
+182.4000E-03,+1.5301900E+00
+182.6000E-03,+1.5301900E+00
+182.8000E-03,+1.5301900E+00
+183.0000E-03,+1.5301900E+00
+183.2000E-03,+1.5301900E+00
+183.4000E-03,+1.5294362E+00
+183.6000E-03,+1.5301900E+00
+183.8000E-03,+1.5301900E+00
+184.0000E-03,+1.5314463E+00
+184.2000E-03,+1.5301900E+00
+184.4000E-03,+1.5309438E+00
+184.6000E-03,+1.5314463E+00
+184.8000E-03,+1.5301900E+00
+185.0000E-03,+1.5301900E+00
+185.2000E-03,+1.5301900E+00
+185.4000E-03,+1.5301900E+00
+185.6000E-03,+1.5301900E+00
+185.8000E-03,+1.5314463E+00
+186.0000E-03,+1.5301900E+00
+186.2000E-03,+1.5314463E+00
+186.4000E-03,+1.5327026E+00
+186.6000E-03,+1.5322001E+00
+186.8000E-03,+1.5327026E+00
+187.0000E-03,+1.5314463E+00
+187.2000E-03,+1.5314463E+00
+187.4000E-03,+1.5314463E+00
+187.6000E-03,+1.5309438E+00
+187.8000E-03,+1.5311950E+00
+188.0000E-03,+1.5314463E+00
+188.2000E-03,+1.5314463E+00
+188.4000E-03,+1.5319488E+00
+188.6000E-03,+1.5322001E+00
+188.8000E-03,+1.5316975E+00
+189.0000E-03,+1.5327026E+00
+189.2000E-03,+1.5316975E+00
+189.4000E-03,+1.5322001E+00
+189.6000E-03,+1.5314463E+00
+189.8000E-03,+1.5314463E+00
+190.0000E-03,+1.5327026E+00
+190.2000E-03,+1.5327026E+00
+190.4000E-03,+1.5327026E+00
+190.6000E-03,+1.5319488E+00
+190.8000E-03,+1.5327026E+00
+191.0000E-03,+1.5327026E+00
+191.2000E-03,+1.5314463E+00
+191.4000E-03,+1.5327026E+00
+191.6000E-03,+1.5327026E+00
+191.8000E-03,+1.5316975E+00
+192.0000E-03,+1.5314463E+00
+192.2000E-03,+1.5324513E+00
+192.4000E-03,+1.5327026E+00
+192.6000E-03,+1.5334563E+00
+192.8000E-03,+1.5327026E+00
+193.0000E-03,+1.5339589E+00
+193.2000E-03,+1.5339589E+00
+193.4000E-03,+1.5319488E+00
+193.6000E-03,+1.5327026E+00
+193.8000E-03,+1.5327026E+00
+194.0000E-03,+1.5339589E+00
+194.2000E-03,+1.5327026E+00
+194.4000E-03,+1.5327026E+00
+194.6000E-03,+1.5327026E+00
+194.8000E-03,+1.5327026E+00
+195.0000E-03,+1.5339589E+00
+195.2000E-03,+1.5327026E+00
+195.4000E-03,+1.5334563E+00
+195.6000E-03,+1.5334563E+00
+195.8000E-03,+1.5349639E+00
+196.0000E-03,+1.5327026E+00
+196.2000E-03,+1.5339589E+00
+196.4000E-03,+1.5327026E+00
+196.6000E-03,+1.5339589E+00
+196.8000E-03,+1.5339589E+00
+197.0000E-03,+1.5339589E+00
+197.2000E-03,+1.5339589E+00
+197.4000E-03,+1.5339589E+00
+197.6000E-03,+1.5339589E+00
+197.8000E-03,+1.5339589E+00
+198.0000E-03,+1.5339589E+00
+198.2000E-03,+1.5349639E+00
+198.4000E-03,+1.5339589E+00
+198.6000E-03,+1.5339589E+00
+198.8000E-03,+1.5339589E+00
+199.0000E-03,+1.5339589E+00
+199.2000E-03,+1.5352151E+00
+199.4000E-03,+1.5352151E+00
+199.6000E-03,+1.5344614E+00
+199.8000E-03,+1.5339589E+00
+200.0000E-03,+1.5352151E+00
+200.2000E-03,+1.5352151E+00
+200.4000E-03,+1.5344614E+00
+200.6000E-03,+1.5339589E+00
+200.8000E-03,+1.5349639E+00
+201.0000E-03,+1.5352151E+00
+201.2000E-03,+1.5349639E+00
+201.4000E-03,+1.5352151E+00
+201.6000E-03,+1.5352151E+00
+201.8000E-03,+1.5339589E+00
+202.0000E-03,+1.5339589E+00
+202.2000E-03,+1.5342101E+00
+202.4000E-03,+1.5344614E+00
+202.6000E-03,+1.5352151E+00
+202.8000E-03,+1.5352151E+00
+203.0000E-03,+1.5352151E+00
+203.2000E-03,+1.5352151E+00
+203.4000E-03,+1.5352151E+00
+203.6000E-03,+1.5357177E+00
+203.8000E-03,+1.5352151E+00
+204.0000E-03,+1.5352151E+00
+204.2000E-03,+1.5352151E+00
+204.4000E-03,+1.5359689E+00
+204.6000E-03,+1.5352151E+00
+204.8000E-03,+1.5352151E+00
+205.0000E-03,+1.5352151E+00
+205.2000E-03,+1.5362202E+00
+205.4000E-03,+1.5364714E+00
+205.6000E-03,+1.5357177E+00
+205.8000E-03,+1.5352151E+00
+206.0000E-03,+1.5364714E+00
+206.2000E-03,+1.5364714E+00
+206.4000E-03,+1.5359689E+00
+206.6000E-03,+1.5357177E+00
+206.8000E-03,+1.5364714E+00
+207.0000E-03,+1.5364714E+00
+207.2000E-03,+1.5362202E+00
+207.4000E-03,+1.5359689E+00
+207.6000E-03,+1.5364714E+00
+207.8000E-03,+1.5367227E+00
+208.0000E-03,+1.5364714E+00
+208.2000E-03,+1.5364714E+00
+208.4000E-03,+1.5364714E+00
+208.6000E-03,+1.5352151E+00
+208.8000E-03,+1.5364714E+00
+209.0000E-03,+1.5364714E+00
+209.2000E-03,+1.5377277E+00
+209.4000E-03,+1.5377277E+00
+209.6000E-03,+1.5364714E+00
+209.8000E-03,+1.5377277E+00
+210.0000E-03,+1.5377277E+00
+210.2000E-03,+1.5377277E+00
+210.4000E-03,+1.5364714E+00
+210.6000E-03,+1.5377277E+00
+210.8000E-03,+1.5374764E+00
+211.0000E-03,+1.5377277E+00
+211.2000E-03,+1.5377277E+00
+211.4000E-03,+1.5389840E+00
+211.6000E-03,+1.5384815E+00
+211.8000E-03,+1.5389840E+00
+212.0000E-03,+1.5389840E+00
+212.2000E-03,+1.5399890E+00
+212.4000E-03,+1.5402403E+00
+212.6000E-03,+1.5402403E+00
+212.8000E-03,+1.5402403E+00
+213.0000E-03,+1.5402403E+00
+213.2000E-03,+1.5402403E+00
+213.4000E-03,+1.5407428E+00
+213.6000E-03,+1.5414965E+00
+213.8000E-03,+1.5404915E+00
+214.0000E-03,+1.5414965E+00
+214.2000E-03,+1.5417478E+00
+214.4000E-03,+1.5419991E+00
+214.6000E-03,+1.5427528E+00
+214.8000E-03,+1.5427528E+00
+215.0000E-03,+1.5440091E+00
+215.2000E-03,+1.5440091E+00
+215.4000E-03,+1.5440091E+00
+215.6000E-03,+1.5452654E+00
+215.8000E-03,+1.5462704E+00
+216.0000E-03,+1.5452654E+00
+216.2000E-03,+1.5452654E+00
+216.4000E-03,+1.5457679E+00
+216.6000E-03,+1.5465217E+00
+216.8000E-03,+1.5475267E+00
+217.0000E-03,+1.5477780E+00
+217.2000E-03,+1.5490342E+00
+217.4000E-03,+1.5490342E+00
+217.6000E-03,+1.5497880E+00
+217.8000E-03,+1.5512955E+00
+218.0000E-03,+1.5515468E+00
+218.2000E-03,+1.5515468E+00
+218.4000E-03,+1.5515468E+00
+218.6000E-03,+1.5528031E+00
+218.8000E-03,+1.5528031E+00
+219.0000E-03,+1.5540594E+00
+219.2000E-03,+1.5540594E+00
+219.4000E-03,+1.5553156E+00
+219.6000E-03,+1.5560694E+00
+219.8000E-03,+1.5565719E+00
+220.0000E-03,+1.5565719E+00
+220.2000E-03,+1.5578282E+00
+220.4000E-03,+1.5578282E+00
+220.6000E-03,+1.5578282E+00
+220.8000E-03,+1.5588332E+00
+221.0000E-03,+1.5590845E+00
+221.2000E-03,+1.5603408E+00
+221.4000E-03,+1.5603408E+00
+221.6000E-03,+1.5610945E+00
+221.8000E-03,+1.5615970E+00
+222.0000E-03,+1.5615970E+00
+222.2000E-03,+1.5615970E+00
+222.4000E-03,+1.5628533E+00
+222.6000E-03,+1.5628533E+00
+222.8000E-03,+1.5651146E+00
+223.0000E-03,+1.5641096E+00
+223.2000E-03,+1.5663709E+00
+223.4000E-03,+1.5673759E+00
+223.6000E-03,+1.5678785E+00
+223.8000E-03,+1.5688835E+00
+224.0000E-03,+1.5703910E+00
+224.2000E-03,+1.5706423E+00
+224.4000E-03,+1.5716473E+00
+224.6000E-03,+1.5716473E+00
+224.8000E-03,+1.5729036E+00
+225.0000E-03,+1.5754161E+00
+225.2000E-03,+1.5754161E+00
+225.4000E-03,+1.5754161E+00
+225.6000E-03,+1.5766724E+00
+225.8000E-03,+1.5769237E+00
+226.0000E-03,+1.5779287E+00
+226.2000E-03,+1.5791850E+00
+226.4000E-03,+1.5791850E+00
+226.6000E-03,+1.5804413E+00
+226.8000E-03,+1.5816975E+00
+227.0000E-03,+1.5816975E+00
+227.2000E-03,+1.5829538E+00
+227.4000E-03,+1.5842101E+00
+227.6000E-03,+1.5842101E+00
+227.8000E-03,+1.5854664E+00
+228.0000E-03,+1.5867227E+00
+228.2000E-03,+1.5879790E+00
+228.4000E-03,+1.5892352E+00
+228.6000E-03,+1.5899890E+00
+228.8000E-03,+1.5904915E+00
+229.0000E-03,+1.5930041E+00
+229.2000E-03,+1.5930041E+00
+229.4000E-03,+1.5942604E+00
+229.6000E-03,+1.5955166E+00
+229.8000E-03,+1.5965217E+00
+230.0000E-03,+1.5967729E+00
+230.2000E-03,+1.5992855E+00
+230.4000E-03,+1.5992855E+00
+230.6000E-03,+1.6005418E+00
+230.8000E-03,+1.6015468E+00
+231.0000E-03,+1.6017981E+00
+231.2000E-03,+1.6033056E+00
+231.4000E-03,+1.6043106E+00
+231.6000E-03,+1.6055669E+00
+231.8000E-03,+1.6065719E+00
+232.0000E-03,+1.6080795E+00
+232.2000E-03,+1.6095870E+00
+232.4000E-03,+1.6105920E+00
+232.6000E-03,+1.6113458E+00
+232.8000E-03,+1.6118483E+00
+233.0000E-03,+1.6131046E+00
+233.2000E-03,+1.6143609E+00
+233.4000E-03,+1.6148634E+00
+233.6000E-03,+1.6156171E+00
+233.8000E-03,+1.6178785E+00
+234.0000E-03,+1.6181297E+00
+234.2000E-03,+1.6193860E+00
+234.4000E-03,+1.6198885E+00
+234.6000E-03,+1.6206423E+00
+234.8000E-03,+1.6218986E+00
+235.0000E-03,+1.6244111E+00
+235.2000E-03,+1.6244111E+00
+235.4000E-03,+1.6249136E+00
+235.6000E-03,+1.6256674E+00
+235.8000E-03,+1.6269237E+00
+236.0000E-03,+1.6294362E+00
+236.2000E-03,+1.6296875E+00
+236.4000E-03,+1.6319488E+00
+236.6000E-03,+1.6319488E+00
+236.8000E-03,+1.6342101E+00
+237.0000E-03,+1.6357176E+00
+237.2000E-03,+1.6357176E+00
+237.4000E-03,+1.6369739E+00
+237.6000E-03,+1.6382302E+00
+237.8000E-03,+1.6382302E+00
+238.0000E-03,+1.6394865E+00
+238.2000E-03,+1.6407428E+00
+238.4000E-03,+1.6419991E+00
+238.6000E-03,+1.6427528E+00
+238.8000E-03,+1.6445116E+00
+239.0000E-03,+1.6457679E+00
+239.2000E-03,+1.6457679E+00
+239.4000E-03,+1.6462704E+00
+239.6000E-03,+1.6482805E+00
+239.8000E-03,+1.6495367E+00
+240.0000E-03,+1.6507930E+00
+240.2000E-03,+1.6510443E+00
+240.4000E-03,+1.6520493E+00
+240.6000E-03,+1.6545619E+00
+240.8000E-03,+1.6555669E+00
+241.0000E-03,+1.6558182E+00
+241.2000E-03,+1.6560694E+00
+241.4000E-03,+1.6578282E+00
+241.6000E-03,+1.6583307E+00
+241.8000E-03,+1.6593357E+00
+242.0000E-03,+1.6608433E+00
+242.2000E-03,+1.6608433E+00
+242.4000E-03,+1.6620996E+00
+242.6000E-03,+1.6641096E+00
+242.8000E-03,+1.6646121E+00
+243.0000E-03,+1.6658684E+00
+243.2000E-03,+1.6683810E+00
+243.4000E-03,+1.6676272E+00
+243.6000E-03,+1.6683810E+00
+243.8000E-03,+1.6696372E+00
+244.0000E-03,+1.6708935E+00
+244.2000E-03,+1.6724011E+00
+244.4000E-03,+1.6734061E+00
+244.6000E-03,+1.6746624E+00
+244.8000E-03,+1.6759187E+00
+245.0000E-03,+1.6759187E+00
+245.2000E-03,+1.6771749E+00
+245.4000E-03,+1.6791850E+00
+245.6000E-03,+1.6796875E+00
+245.8000E-03,+1.6809438E+00
+246.0000E-03,+1.6809438E+00
+246.2000E-03,+1.6822001E+00
+246.4000E-03,+1.6827026E+00
+246.6000E-03,+1.6842101E+00
+246.8000E-03,+1.6859689E+00
+247.0000E-03,+1.6872252E+00
+247.2000E-03,+1.6884815E+00
+247.4000E-03,+1.6897377E+00
+247.6000E-03,+1.6909940E+00
+247.8000E-03,+1.6919991E+00
+248.0000E-03,+1.6935066E+00
+248.2000E-03,+1.6935066E+00
+248.4000E-03,+1.6947629E+00
+248.6000E-03,+1.6967729E+00
+248.8000E-03,+1.6972754E+00
+249.0000E-03,+1.6985317E+00
+249.2000E-03,+1.6987830E+00
+249.4000E-03,+1.7010443E+00
+249.6000E-03,+1.7010443E+00
+249.8000E-03,+1.7023006E+00
+250.0000E-03,+1.7035568E+00
+250.2000E-03,+1.7038081E+00
+250.4000E-03,+1.7053156E+00
+250.6000E-03,+1.7068232E+00
+250.8000E-03,+1.7083307E+00
+251.0000E-03,+1.7098383E+00
+251.2000E-03,+1.7100895E+00
+251.4000E-03,+1.7115970E+00
+251.6000E-03,+1.7136071E+00
+251.8000E-03,+1.7136071E+00
+252.0000E-03,+1.7148634E+00
+252.2000E-03,+1.7161197E+00
+252.4000E-03,+1.7166222E+00
+252.6000E-03,+1.7181297E+00
+252.8000E-03,+1.7186322E+00
+253.0000E-03,+1.7198885E+00
+253.2000E-03,+1.7211448E+00
+253.4000E-03,+1.7216473E+00
+253.6000E-03,+1.7218986E+00
+253.8000E-03,+1.7224011E+00
+254.0000E-03,+1.7236573E+00
+254.2000E-03,+1.7251649E+00
+254.4000E-03,+1.7261699E+00
+254.6000E-03,+1.7274262E+00
+254.8000E-03,+1.7284312E+00
+255.0000E-03,+1.7299388E+00
+255.2000E-03,+1.7314463E+00
+255.4000E-03,+1.7329538E+00
+255.6000E-03,+1.7337076E+00
+255.8000E-03,+1.7349639E+00
+256.0000E-03,+1.7362202E+00
+256.2000E-03,+1.7364714E+00
+256.4000E-03,+1.7374764E+00
+256.6000E-03,+1.7387327E+00
+256.8000E-03,+1.7387327E+00
+257.0000E-03,+1.7399890E+00
+257.2000E-03,+1.7399890E+00
+257.4000E-03,+1.7417478E+00
+257.6000E-03,+1.7432553E+00
+257.8000E-03,+1.7437578E+00
+258.0000E-03,+1.7450141E+00
+258.2000E-03,+1.7460192E+00
+258.4000E-03,+1.7462704E+00
+258.6000E-03,+1.7475267E+00
+258.8000E-03,+1.7485317E+00
+259.0000E-03,+1.7500393E+00
+259.2000E-03,+1.7512955E+00
+259.4000E-03,+1.7525518E+00
+259.6000E-03,+1.7538081E+00
+259.8000E-03,+1.7548131E+00
+260.0000E-03,+1.7563207E+00
+260.2000E-03,+1.7575769E+00
+260.4000E-03,+1.7568232E+00
+260.6000E-03,+1.7595870E+00
+260.8000E-03,+1.7598383E+00
+261.0000E-03,+1.7613458E+00
+261.2000E-03,+1.7615970E+00
+261.4000E-03,+1.7638584E+00
+261.6000E-03,+1.7638584E+00
+261.8000E-03,+1.7648634E+00
+262.0000E-03,+1.7663709E+00
+262.2000E-03,+1.7666222E+00
+262.4000E-03,+1.7676272E+00
+262.6000E-03,+1.7701398E+00
+262.8000E-03,+1.7711448E+00
+263.0000E-03,+1.7713960E+00
+263.2000E-03,+1.7729036E+00
+263.4000E-03,+1.7744111E+00
+263.6000E-03,+1.7746624E+00
+263.8000E-03,+1.7764212E+00
+264.0000E-03,+1.7776774E+00
+264.2000E-03,+1.7779287E+00
+264.4000E-03,+1.7789337E+00
+264.6000E-03,+1.7801900E+00
+264.8000E-03,+1.7814463E+00
+265.0000E-03,+1.7814463E+00
+265.2000E-03,+1.7827026E+00
+265.4000E-03,+1.7839589E+00
+265.6000E-03,+1.7839589E+00
+265.8000E-03,+1.7862202E+00
+266.0000E-03,+1.7877277E+00
+266.2000E-03,+1.7877277E+00
+266.4000E-03,+1.7894865E+00
+266.6000E-03,+1.7909940E+00
+266.8000E-03,+1.7914965E+00
+267.0000E-03,+1.7914965E+00
+267.2000E-03,+1.7940091E+00
+267.4000E-03,+1.7940091E+00
+267.6000E-03,+1.7952654E+00
+267.8000E-03,+1.7952654E+00
+268.0000E-03,+1.7965217E+00
+268.2000E-03,+1.7977779E+00
+268.4000E-03,+1.7990342E+00
+268.6000E-03,+1.7990342E+00
+268.8000E-03,+1.7990342E+00
+269.0000E-03,+1.8002905E+00
+269.2000E-03,+1.8002905E+00
+269.4000E-03,+1.8015468E+00
+269.6000E-03,+1.8020493E+00
+269.8000E-03,+1.8028031E+00
+270.0000E-03,+1.8028031E+00
+270.2000E-03,+1.8040594E+00
+270.4000E-03,+1.8040594E+00
+270.6000E-03,+1.8053156E+00
+270.8000E-03,+1.8055669E+00
+271.0000E-03,+1.8065719E+00
+271.2000E-03,+1.8068232E+00
+271.4000E-03,+1.8078282E+00
+271.6000E-03,+1.8078282E+00
+271.8000E-03,+1.8100895E+00
+272.0000E-03,+1.8090845E+00
+272.2000E-03,+1.8090845E+00
+272.4000E-03,+1.8103408E+00
+272.6000E-03,+1.8115970E+00
+272.8000E-03,+1.8103408E+00
+273.0000E-03,+1.8103408E+00
+273.2000E-03,+1.8115970E+00
+273.4000E-03,+1.8120996E+00
+273.6000E-03,+1.8123508E+00
+273.8000E-03,+1.8118483E+00
+274.0000E-03,+1.8128533E+00
+274.2000E-03,+1.8126021E+00
+274.4000E-03,+1.8128533E+00
+274.6000E-03,+1.8136071E+00
+274.8000E-03,+1.8138584E+00
+275.0000E-03,+1.8141096E+00
+275.2000E-03,+1.8141096E+00
+275.4000E-03,+1.8141096E+00
+275.6000E-03,+1.8148634E+00
+275.8000E-03,+1.8153659E+00
+276.0000E-03,+1.8141096E+00
+276.2000E-03,+1.8141096E+00
+276.4000E-03,+1.8141096E+00
+276.6000E-03,+1.8141096E+00
+276.8000E-03,+1.8141096E+00
+277.0000E-03,+1.8141096E+00
+277.2000E-03,+1.8143609E+00
+277.4000E-03,+1.8141096E+00
+277.6000E-03,+1.8153659E+00
+277.8000E-03,+1.8141096E+00
+278.0000E-03,+1.8141096E+00
+278.2000E-03,+1.8151146E+00
+278.4000E-03,+1.8141096E+00
+278.6000E-03,+1.8141096E+00
+278.8000E-03,+1.8131046E+00
+279.0000E-03,+1.8128533E+00
+279.2000E-03,+1.8138584E+00
+279.4000E-03,+1.8128533E+00
+279.6000E-03,+1.8123508E+00
+279.8000E-03,+1.8126021E+00
+280.0000E-03,+1.8115970E+00
+280.2000E-03,+1.8115970E+00
+280.4000E-03,+1.8115970E+00
+280.6000E-03,+1.8108433E+00
+280.8000E-03,+1.8105920E+00
+281.0000E-03,+1.8090845E+00
+281.2000E-03,+1.8090845E+00
+281.4000E-03,+1.8090845E+00
+281.6000E-03,+1.8078282E+00
+281.8000E-03,+1.8078282E+00
+282.0000E-03,+1.8065719E+00
+282.2000E-03,+1.8075769E+00
+282.4000E-03,+1.8065719E+00
+282.6000E-03,+1.8058181E+00
+282.8000E-03,+1.8040594E+00
+283.0000E-03,+1.8040594E+00
+283.2000E-03,+1.8038081E+00
+283.4000E-03,+1.8028031E+00
+283.6000E-03,+1.8020493E+00
+283.8000E-03,+1.8015468E+00
+284.0000E-03,+1.8015468E+00
+284.2000E-03,+1.8015468E+00
+284.4000E-03,+1.8002905E+00
+284.6000E-03,+1.7990342E+00
+284.8000E-03,+1.7990342E+00
+285.0000E-03,+1.7977779E+00
+285.2000E-03,+1.7977779E+00
+285.4000E-03,+1.7965217E+00
+285.6000E-03,+1.7957679E+00
+285.8000E-03,+1.7952654E+00
+286.0000E-03,+1.7927528E+00
+286.2000E-03,+1.7927528E+00
+286.4000E-03,+1.7914965E+00
+286.6000E-03,+1.7922503E+00
+286.8000E-03,+1.7902403E+00
+287.0000E-03,+1.7889840E+00
+287.2000E-03,+1.7887327E+00
+287.4000E-03,+1.7859689E+00
+287.6000E-03,+1.7844614E+00
+287.8000E-03,+1.7839589E+00
+288.0000E-03,+1.7827026E+00
+288.2000E-03,+1.7816975E+00
+288.4000E-03,+1.7814463E+00
+288.6000E-03,+1.7814463E+00
+288.8000E-03,+1.7801900E+00
+289.0000E-03,+1.7789337E+00
+289.2000E-03,+1.7776774E+00
+289.4000E-03,+1.7771749E+00
+289.6000E-03,+1.7756674E+00
+289.8000E-03,+1.7741599E+00
+290.0000E-03,+1.7739086E+00
+290.2000E-03,+1.7726523E+00
+290.4000E-03,+1.7713960E+00
+290.6000E-03,+1.7701398E+00
+290.8000E-03,+1.7688835E+00
+291.0000E-03,+1.7688835E+00
+291.2000E-03,+1.7673759E+00
+291.4000E-03,+1.7663709E+00
+291.6000E-03,+1.7643609E+00
+291.8000E-03,+1.7638584E+00
+292.0000E-03,+1.7638584E+00
+292.2000E-03,+1.7613458E+00
+292.4000E-03,+1.7608433E+00
+292.6000E-03,+1.7600895E+00
+292.8000E-03,+1.7588332E+00
+293.0000E-03,+1.7575769E+00
+293.2000E-03,+1.7563207E+00
+293.4000E-03,+1.7563207E+00
+293.6000E-03,+1.7543106E+00
+293.8000E-03,+1.7538081E+00
+294.0000E-03,+1.7525518E+00
+294.2000E-03,+1.7523006E+00
+294.4000E-03,+1.7507930E+00
+294.6000E-03,+1.7492855E+00
+294.8000E-03,+1.7475267E+00
+295.0000E-03,+1.7475267E+00
+295.2000E-03,+1.7462704E+00
+295.4000E-03,+1.7450141E+00
+295.6000E-03,+1.7442604E+00
+295.8000E-03,+1.7435066E+00
+296.0000E-03,+1.7412453E+00
+296.2000E-03,+1.7412453E+00
+296.4000E-03,+1.7399890E+00
+296.6000E-03,+1.7387327E+00
+296.8000E-03,+1.7387327E+00
+297.0000E-03,+1.7362202E+00
+297.2000E-03,+1.7362202E+00
+297.4000E-03,+1.7357176E+00
+297.6000E-03,+1.7342101E+00
+297.8000E-03,+1.7337076E+00
+298.0000E-03,+1.7311950E+00
+298.2000E-03,+1.7311950E+00
+298.4000E-03,+1.7306925E+00
+298.6000E-03,+1.7279287E+00
+298.8000E-03,+1.7274262E+00
+299.0000E-03,+1.7261699E+00
+299.2000E-03,+1.7249136E+00
+299.4000E-03,+1.7231548E+00
+299.6000E-03,+1.7229036E+00
+299.8000E-03,+1.7224011E+00
+300.0000E-03,+1.7211448E+00
+300.2000E-03,+1.7198885E+00
+300.4000E-03,+1.7193860E+00
+300.6000E-03,+1.7186322E+00
+300.8000E-03,+1.7176272E+00
+301.0000E-03,+1.7161197E+00
+301.2000E-03,+1.7151146E+00
+301.4000E-03,+1.7148634E+00
+301.6000E-03,+1.7143609E+00
+301.8000E-03,+1.7136071E+00
+302.0000E-03,+1.7110945E+00
+302.2000E-03,+1.7098383E+00
+302.4000E-03,+1.7085820E+00
+302.6000E-03,+1.7065719E+00
+302.8000E-03,+1.7060694E+00
+303.0000E-03,+1.7060694E+00
+303.2000E-03,+1.7045619E+00
+303.4000E-03,+1.7035568E+00
+303.6000E-03,+1.7023006E+00
+303.8000E-03,+1.7010443E+00
+304.0000E-03,+1.6997880E+00
+304.2000E-03,+1.6995367E+00
+304.4000E-03,+1.6985317E+00
+304.6000E-03,+1.6972754E+00
+304.8000E-03,+1.6962704E+00
+305.0000E-03,+1.6947629E+00
+305.2000E-03,+1.6947629E+00
+305.4000E-03,+1.6922503E+00
+305.6000E-03,+1.6917478E+00
+305.8000E-03,+1.6909940E+00
+306.0000E-03,+1.6884815E+00
+306.2000E-03,+1.6882302E+00
+306.4000E-03,+1.6859689E+00
+306.6000E-03,+1.6859689E+00
+306.8000E-03,+1.6837076E+00
+307.0000E-03,+1.6834563E+00
+307.2000E-03,+1.6822001E+00
+307.4000E-03,+1.6809438E+00
+307.6000E-03,+1.6804413E+00
+307.8000E-03,+1.6796875E+00
+308.0000E-03,+1.6784312E+00
+308.2000E-03,+1.6774262E+00
+308.4000E-03,+1.6766724E+00
+308.6000E-03,+1.6759187E+00
+308.8000E-03,+1.6749136E+00
+309.0000E-03,+1.6734061E+00
+309.2000E-03,+1.6721498E+00
+309.4000E-03,+1.6708935E+00
+309.6000E-03,+1.6708935E+00
+309.8000E-03,+1.6696372E+00
+310.0000E-03,+1.6683810E+00
+310.2000E-03,+1.6668734E+00
+310.4000E-03,+1.6653659E+00
+310.6000E-03,+1.6646121E+00
+310.8000E-03,+1.6623508E+00
+311.0000E-03,+1.6620996E+00
+311.2000E-03,+1.6618483E+00
+311.4000E-03,+1.6608433E+00
+311.6000E-03,+1.6595870E+00
+311.8000E-03,+1.6585820E+00
+312.0000E-03,+1.6583307E+00
+312.2000E-03,+1.6570744E+00
+312.4000E-03,+1.6570744E+00
+312.6000E-03,+1.6545619E+00
+312.8000E-03,+1.6535568E+00
+313.0000E-03,+1.6533056E+00
+313.2000E-03,+1.6507930E+00
+313.4000E-03,+1.6495367E+00
+313.6000E-03,+1.6482805E+00
+313.8000E-03,+1.6482805E+00
+314.0000E-03,+1.6457679E+00
+314.2000E-03,+1.6457679E+00
+314.4000E-03,+1.6445116E+00
+314.6000E-03,+1.6437579E+00
+314.8000E-03,+1.6430041E+00
+315.0000E-03,+1.6407428E+00
+315.2000E-03,+1.6407428E+00
+315.4000E-03,+1.6394865E+00
+315.6000E-03,+1.6382302E+00
+315.8000E-03,+1.6379790E+00
+316.0000E-03,+1.6369739E+00
+316.2000E-03,+1.6359689E+00
+316.4000E-03,+1.6352151E+00
+316.6000E-03,+1.6344614E+00
+316.8000E-03,+1.6319488E+00
+317.0000E-03,+1.6294362E+00
+317.2000E-03,+1.6294362E+00
+317.4000E-03,+1.6289337E+00
+317.6000E-03,+1.6274262E+00
+317.8000E-03,+1.6259187E+00
+318.0000E-03,+1.6256674E+00
+318.2000E-03,+1.6254161E+00
+318.4000E-03,+1.6231548E+00
+318.6000E-03,+1.6218986E+00
+318.8000E-03,+1.6208935E+00
+319.0000E-03,+1.6193860E+00
+319.2000E-03,+1.6193860E+00
+319.4000E-03,+1.6181297E+00
+319.6000E-03,+1.6168734E+00
+319.8000E-03,+1.6156171E+00
+320.0000E-03,+1.6156171E+00
+320.2000E-03,+1.6143609E+00
+320.4000E-03,+1.6138584E+00
+320.6000E-03,+1.6131046E+00
+320.8000E-03,+1.6108433E+00
+321.0000E-03,+1.6093357E+00
+321.2000E-03,+1.6090845E+00
+321.4000E-03,+1.6075769E+00
+321.6000E-03,+1.6060694E+00
+321.8000E-03,+1.6055669E+00
+322.0000E-03,+1.6043106E+00
+322.2000E-03,+1.6030543E+00
+322.4000E-03,+1.6017981E+00
+322.6000E-03,+1.6017981E+00
+322.8000E-03,+1.6005418E+00
+323.0000E-03,+1.5992855E+00
+323.2000E-03,+1.5980292E+00
+323.4000E-03,+1.5967729E+00
+323.6000E-03,+1.5967729E+00
+323.8000E-03,+1.5955166E+00
+324.0000E-03,+1.5942604E+00
+324.2000E-03,+1.5932553E+00
+324.4000E-03,+1.5930041E+00
+324.6000E-03,+1.5909940E+00
+324.8000E-03,+1.5904915E+00
+325.0000E-03,+1.5892352E+00
+325.2000E-03,+1.5879790E+00
+325.4000E-03,+1.5867227E+00
+325.6000E-03,+1.5859689E+00
+325.8000E-03,+1.5854664E+00
+326.0000E-03,+1.5842101E+00
+326.2000E-03,+1.5829538E+00
+326.4000E-03,+1.5824513E+00
+326.6000E-03,+1.5804413E+00
+326.8000E-03,+1.5806925E+00
+327.0000E-03,+1.5804413E+00
+327.2000E-03,+1.5791850E+00
+327.4000E-03,+1.5786825E+00
+327.6000E-03,+1.5771749E+00
+327.8000E-03,+1.5766724E+00
+328.0000E-03,+1.5754161E+00
+328.2000E-03,+1.5741599E+00
+328.4000E-03,+1.5741599E+00
+328.6000E-03,+1.5729036E+00
+328.8000E-03,+1.5731548E+00
+329.0000E-03,+1.5716473E+00
+329.2000E-03,+1.5703910E+00
+329.4000E-03,+1.5698885E+00
+329.6000E-03,+1.5683810E+00
+329.8000E-03,+1.5676272E+00
+330.0000E-03,+1.5666222E+00
+330.2000E-03,+1.5663709E+00
+330.4000E-03,+1.5653659E+00
+330.6000E-03,+1.5641096E+00
+330.8000E-03,+1.5641096E+00
+331.0000E-03,+1.5628533E+00
+331.2000E-03,+1.5613458E+00
+331.4000E-03,+1.5610945E+00
+331.6000E-03,+1.5608433E+00
+331.8000E-03,+1.5593357E+00
+332.0000E-03,+1.5590845E+00
+332.2000E-03,+1.5580795E+00
+332.4000E-03,+1.5578282E+00
+332.6000E-03,+1.5578282E+00
+332.8000E-03,+1.5575769E+00
+333.0000E-03,+1.5565719E+00
+333.2000E-03,+1.5563207E+00
+333.4000E-03,+1.5553156E+00
+333.6000E-03,+1.5553156E+00
+333.8000E-03,+1.5543106E+00
+334.0000E-03,+1.5540594E+00
+334.2000E-03,+1.5528031E+00
+334.4000E-03,+1.5515468E+00
+334.6000E-03,+1.5515468E+00
+334.8000E-03,+1.5502905E+00
+335.0000E-03,+1.5502905E+00
+335.2000E-03,+1.5490342E+00
+335.4000E-03,+1.5490342E+00
+335.6000E-03,+1.5470242E+00
