x-axis,1
second,Volt
-1.0000000E+00,+1.8693860E+00
-999.6000E-03,+1.8746624E+00
-999.2000E-03,+1.8794362E+00
-998.8000E-03,+1.8827026E+00
-998.4000E-03,+1.8867227E+00
-998.0000E-03,+1.8907428E+00
-997.6000E-03,+1.8960192E+00
-997.2000E-03,+1.9000393E+00
-996.8000E-03,+1.9040594E+00
-996.4000E-03,+1.9080795E+00
-996.0000E-03,+1.9133558E+00
-995.6000E-03,+1.9186322E+00
-995.2000E-03,+1.9221498E+00
-994.8000E-03,+1.9259187E+00
-994.4000E-03,+1.9306925E+00
-994.0000E-03,+1.9359689E+00
-993.6000E-03,+1.9399890E+00
-993.2000E-03,+1.9440091E+00
-992.8000E-03,+1.9487830E+00
-992.4000E-03,+1.9533056E+00
-992.0000E-03,+1.9585820E+00
-991.6000E-03,+1.9615970E+00
-991.2000E-03,+1.9653659E+00
-990.8000E-03,+1.9693860E+00
-990.4000E-03,+1.9746624E+00
-990.0000E-03,+1.9799388E+00
-989.6000E-03,+1.9827026E+00
-989.2000E-03,+1.9867227E+00
-988.8000E-03,+1.9914965E+00
-988.4000E-03,+1.9960192E+00
-988.0000E-03,+2.0000393E+00
-987.6000E-03,+2.0043106E+00
-987.2000E-03,+2.0080795E+00
-986.8000E-03,+2.0141096E+00
-986.4000E-03,+2.0186322E+00
-986.0000E-03,+2.0226523E+00
-985.6000E-03,+2.0266724E+00
-985.2000E-03,+2.0314463E+00
-984.8000E-03,+2.0372252E+00
-984.4000E-03,+2.0399890E+00
-984.0000E-03,+2.0440091E+00
-983.6000E-03,+2.0467729E+00
-983.2000E-03,+2.0502905E+00
-982.8000E-03,+2.0548131E+00
-982.4000E-03,+2.0578282E+00
-982.0000E-03,+2.0603408E+00
-981.6000E-03,+2.0631046E+00
-981.2000E-03,+2.0666222E+00
-980.8000E-03,+2.0686322E+00
-980.4000E-03,+2.0726523E+00
-980.0000E-03,+2.0741599E+00
-979.6000E-03,+2.0759186E+00
-979.2000E-03,+2.0791850E+00
-978.8000E-03,+2.0804413E+00
-978.4000E-03,+2.0824513E+00
-978.0000E-03,+2.0829538E+00
-977.6000E-03,+2.0842101E+00
-977.2000E-03,+2.0854664E+00
-976.8000E-03,+2.0862202E+00
-976.4000E-03,+2.0877277E+00
-976.0000E-03,+2.0892352E+00
-975.6000E-03,+2.0892352E+00
-975.2000E-03,+2.0897377E+00
-974.8000E-03,+2.0904915E+00
-974.4000E-03,+2.0904915E+00
-974.0000E-03,+2.0904915E+00
-973.6000E-03,+2.0902403E+00
-973.2000E-03,+2.0904915E+00
-972.8000E-03,+2.0884815E+00
-972.4000E-03,+2.0879790E+00
-972.0000E-03,+2.0879790E+00
-971.6000E-03,+2.0867227E+00
-971.2000E-03,+2.0854664E+00
-970.8000E-03,+2.0842101E+00
-970.4000E-03,+2.0829538E+00
-970.0000E-03,+2.0816975E+00
-969.6000E-03,+2.0801900E+00
-969.2000E-03,+2.0779287E+00
-968.8000E-03,+2.0764212E+00
-968.4000E-03,+2.0731548E+00
-968.0000E-03,+2.0703910E+00
-967.6000E-03,+2.0676272E+00
-967.2000E-03,+2.0648634E+00
-966.8000E-03,+2.0628533E+00
-966.4000E-03,+2.0593357E+00
-966.0000E-03,+2.0565719E+00
-965.6000E-03,+2.0538081E+00
-965.2000E-03,+2.0497880E+00
-964.8000E-03,+2.0457679E+00
-964.4000E-03,+2.0427528E+00
-964.0000E-03,+2.0402403E+00
-963.6000E-03,+2.0339589E+00
-963.2000E-03,+2.0309438E+00
-962.8000E-03,+2.0261699E+00
-962.4000E-03,+2.0216473E+00
-962.0000E-03,+2.0163709E+00
-961.6000E-03,+2.0136071E+00
-961.2000E-03,+2.0083307E+00
-960.8000E-03,+2.0030543E+00
-960.4000E-03,+1.9990342E+00
-960.0000E-03,+1.9950141E+00
-959.6000E-03,+1.9899890E+00
-959.2000E-03,+1.9857176E+00
-958.8000E-03,+1.9816975E+00
-958.4000E-03,+1.9779287E+00
-958.0000E-03,+1.9724011E+00
-957.6000E-03,+1.9673759E+00
-957.2000E-03,+1.9638583E+00
-956.8000E-03,+1.9590845E+00
-956.4000E-03,+1.9563207E+00
-956.0000E-03,+1.9497880E+00
-955.6000E-03,+1.9457679E+00
-955.2000E-03,+1.9430041E+00
-954.8000E-03,+1.9389840E+00
-954.4000E-03,+1.9349639E+00
-954.0000E-03,+1.9296875E+00
-953.6000E-03,+1.9244111E+00
-953.2000E-03,+1.9216473E+00
-952.8000E-03,+1.9171247E+00
-952.4000E-03,+1.9110945E+00
-952.0000E-03,+1.9070744E+00
-951.6000E-03,+1.9030543E+00
-951.2000E-03,+1.8995367E+00
-950.8000E-03,+1.8950141E+00
-950.4000E-03,+1.8909940E+00
-950.0000E-03,+1.8857176E+00
-949.6000E-03,+1.8816975E+00
-949.2000E-03,+1.8776774E+00
-948.8000E-03,+1.8729036E+00
-948.4000E-03,+1.8683810E+00
-948.0000E-03,+1.8643609E+00
-947.6000E-03,+1.8593357E+00
-947.2000E-03,+1.8575769E+00
-946.8000E-03,+1.8523006E+00
-946.4000E-03,+1.8470242E+00
-946.0000E-03,+1.8430041E+00
-945.6000E-03,+1.8389840E+00
-945.2000E-03,+1.8344614E+00
-944.8000E-03,+1.8304413E+00
-944.4000E-03,+1.8256674E+00
-944.0000E-03,+1.8216473E+00
-943.6000E-03,+1.8161197E+00
-943.2000E-03,+1.8123508E+00
-942.8000E-03,+1.8078282E+00
-942.4000E-03,+1.8030543E+00
-942.0000E-03,+1.7990342E+00
-941.6000E-03,+1.7950141E+00
-941.2000E-03,+1.7904915E+00
-940.8000E-03,+1.7857176E+00
-940.4000E-03,+1.7816975E+00
-940.0000E-03,+1.7776774E+00
-939.6000E-03,+1.7736573E+00
-939.2000E-03,+1.7683810E+00
-938.8000E-03,+1.7643609E+00
-938.4000E-03,+1.7603408E+00
-938.0000E-03,+1.7563207E+00
-937.6000E-03,+1.7510443E+00
-937.2000E-03,+1.7470242E+00
-936.8000E-03,+1.7430041E+00
-936.4000E-03,+1.7399890E+00
-936.0000E-03,+1.7349639E+00
-935.6000E-03,+1.7309438E+00
-935.2000E-03,+1.7256674E+00
-934.8000E-03,+1.7216473E+00
-934.4000E-03,+1.7176272E+00
-934.0000E-03,+1.7136071E+00
-933.6000E-03,+1.7095870E+00
-933.2000E-03,+1.7038081E+00
-932.8000E-03,+1.7002905E+00
-932.4000E-03,+1.6962704E+00
-932.0000E-03,+1.6922503E+00
-931.6000E-03,+1.6869739E+00
-931.2000E-03,+1.6824513E+00
-930.8000E-03,+1.6776774E+00
-930.4000E-03,+1.6736573E+00
-930.0000E-03,+1.6696372E+00
-929.6000E-03,+1.6653659E+00
-929.2000E-03,+1.6615970E+00
-928.8000E-03,+1.6575769E+00
-928.4000E-03,+1.6535568E+00
-928.0000E-03,+1.6495367E+00
-927.6000E-03,+1.6442604E+00
-927.2000E-03,+1.6394865E+00
-926.8000E-03,+1.6349639E+00
-926.4000E-03,+1.6296875E+00
-926.0000E-03,+1.6256674E+00
-925.6000E-03,+1.6218986E+00
-925.2000E-03,+1.6188835E+00
-924.8000E-03,+1.6148634E+00
-924.4000E-03,+1.6108433E+00
-924.0000E-03,+1.6068232E+00
-923.6000E-03,+1.6028031E+00
-923.2000E-03,+1.5992855E+00
-922.8000E-03,+1.5960192E+00
-922.4000E-03,+1.5922503E+00
-922.0000E-03,+1.5892352E+00
-921.6000E-03,+1.5854664E+00
-921.2000E-03,+1.5824513E+00
-920.8000E-03,+1.5796875E+00
-920.4000E-03,+1.5769237E+00
-920.0000E-03,+1.5741599E+00
-919.6000E-03,+1.5713960E+00
-919.2000E-03,+1.5686322E+00
-918.8000E-03,+1.5653659E+00
-918.4000E-03,+1.5631046E+00
-918.0000E-03,+1.5603408E+00
-917.6000E-03,+1.5578282E+00
-917.2000E-03,+1.5560694E+00
-916.8000E-03,+1.5545619E+00
-916.4000E-03,+1.5515468E+00
-916.0000E-03,+1.5502905E+00
-915.6000E-03,+1.5465217E+00
-915.2000E-03,+1.5452654E+00
-914.8000E-03,+1.5427528E+00
-914.4000E-03,+1.5404915E+00
-914.0000E-03,+1.5389840E+00
-913.6000E-03,+1.5377277E+00
-913.2000E-03,+1.5359689E+00
-912.8000E-03,+1.5352151E+00
-912.4000E-03,+1.5329538E+00
-912.0000E-03,+1.5314463E+00
-911.6000E-03,+1.5301900E+00
-911.2000E-03,+1.5289337E+00
-910.8000E-03,+1.5269237E+00
-910.4000E-03,+1.5254161E+00
-910.0000E-03,+1.5239086E+00
-909.6000E-03,+1.5239086E+00
-909.2000E-03,+1.5226523E+00
-908.8000E-03,+1.5226523E+00
-908.4000E-03,+1.5213960E+00
-908.0000E-03,+1.5201398E+00
-907.6000E-03,+1.5201398E+00
-907.2000E-03,+1.5201398E+00
-906.8000E-03,+1.5188835E+00
-906.4000E-03,+1.5198885E+00
-906.0000E-03,+1.5188835E+00
-905.6000E-03,+1.5188835E+00
-905.2000E-03,+1.5188835E+00
-904.8000E-03,+1.5183810E+00
-904.4000E-03,+1.5176272E+00
-904.0000E-03,+1.5176272E+00
-903.6000E-03,+1.5176272E+00
-903.2000E-03,+1.5176272E+00
-902.8000E-03,+1.5176272E+00
-902.4000E-03,+1.5176272E+00
-902.0000E-03,+1.5188835E+00
-901.6000E-03,+1.5176272E+00
-901.2000E-03,+1.5168734E+00
-900.8000E-03,+1.5176272E+00
-900.4000E-03,+1.5176272E+00
-900.0000E-03,+1.5176272E+00
-899.6000E-03,+1.5176272E+00
-899.2000E-03,+1.5176272E+00
-898.8000E-03,+1.5176272E+00
-898.4000E-03,+1.5166222E+00
-898.0000E-03,+1.5176272E+00
-897.6000E-03,+1.5176272E+00
-897.2000E-03,+1.5168734E+00
-896.8000E-03,+1.5163709E+00
-896.4000E-03,+1.5163709E+00
-896.0000E-03,+1.5176272E+00
-895.6000E-03,+1.5166222E+00
-895.2000E-03,+1.5163709E+00
-894.8000E-03,+1.5163709E+00
-894.4000E-03,+1.5163709E+00
-894.0000E-03,+1.5163709E+00
-893.6000E-03,+1.5163709E+00
-893.2000E-03,+1.5158684E+00
-892.8000E-03,+1.5163709E+00
-892.4000E-03,+1.5163709E+00
-892.0000E-03,+1.5163709E+00
-891.6000E-03,+1.5163709E+00
-891.2000E-03,+1.5151146E+00
-890.8000E-03,+1.5151146E+00
-890.4000E-03,+1.5151146E+00
-890.0000E-03,+1.5163709E+00
-889.6000E-03,+1.5161197E+00
-889.2000E-03,+1.5156171E+00
-888.8000E-03,+1.5151146E+00
-888.4000E-03,+1.5151146E+00
-888.0000E-03,+1.5138584E+00
-887.6000E-03,+1.5161197E+00
-887.2000E-03,+1.5151146E+00
-886.8000E-03,+1.5138584E+00
-886.4000E-03,+1.5138584E+00
-886.0000E-03,+1.5151146E+00
-885.6000E-03,+1.5148634E+00
-885.2000E-03,+1.5151146E+00
-884.8000E-03,+1.5138584E+00
-884.4000E-03,+1.5138584E+00
-884.0000E-03,+1.5138584E+00
-883.6000E-03,+1.5128533E+00
-883.2000E-03,+1.5131046E+00
-882.8000E-03,+1.5126021E+00
-882.4000E-03,+1.5138584E+00
-882.0000E-03,+1.5138584E+00
-881.6000E-03,+1.5138584E+00
-881.2000E-03,+1.5126021E+00
-880.8000E-03,+1.5126021E+00
-880.4000E-03,+1.5126021E+00
-880.0000E-03,+1.5126021E+00
-879.6000E-03,+1.5136071E+00
-879.2000E-03,+1.5138584E+00
-878.8000E-03,+1.5131046E+00
-878.4000E-03,+1.5126021E+00
-878.0000E-03,+1.5126021E+00
-877.6000E-03,+1.5126021E+00
-877.2000E-03,+1.5133558E+00
-876.8000E-03,+1.5126021E+00
-876.4000E-03,+1.5126021E+00
-876.0000E-03,+1.5126021E+00
-875.6000E-03,+1.5126021E+00
-875.2000E-03,+1.5126021E+00
-874.8000E-03,+1.5113458E+00
-874.4000E-03,+1.5126021E+00
-874.0000E-03,+1.5113458E+00
-873.6000E-03,+1.5113458E+00
-873.2000E-03,+1.5113458E+00
-872.8000E-03,+1.5113458E+00
-872.4000E-03,+1.5100895E+00
-872.0000E-03,+1.5100895E+00
-871.6000E-03,+1.5110945E+00
-871.2000E-03,+1.5105920E+00
-870.8000E-03,+1.5113458E+00
-870.4000E-03,+1.5103408E+00
-870.0000E-03,+1.5113458E+00
-869.6000E-03,+1.5098383E+00
-869.2000E-03,+1.5108433E+00
-868.8000E-03,+1.5113458E+00
-868.4000E-03,+1.5103408E+00
-868.0000E-03,+1.5100895E+00
-867.6000E-03,+1.5100895E+00
-867.2000E-03,+1.5093357E+00
-866.8000E-03,+1.5100895E+00
-866.4000E-03,+1.5100895E+00
-866.0000E-03,+1.5088332E+00
-865.6000E-03,+1.5088332E+00
-865.2000E-03,+1.5088332E+00
-864.8000E-03,+1.5088332E+00
-864.4000E-03,+1.5088332E+00
-864.0000E-03,+1.5088332E+00
-863.6000E-03,+1.5075769E+00
-863.2000E-03,+1.5075769E+00
-862.8000E-03,+1.5080795E+00
-862.4000E-03,+1.5088332E+00
-862.0000E-03,+1.5075769E+00
-861.6000E-03,+1.5075769E+00
-861.2000E-03,+1.5075769E+00
-860.8000E-03,+1.5075769E+00
-860.4000E-03,+1.5075769E+00
-860.0000E-03,+1.5075769E+00
-859.6000E-03,+1.5075769E+00
-859.2000E-03,+1.5075769E+00
-858.8000E-03,+1.5075769E+00
-858.4000E-03,+1.5073257E+00
-858.0000E-03,+1.5075769E+00
-857.6000E-03,+1.5065719E+00
-857.2000E-03,+1.5063207E+00
-856.8000E-03,+1.5075769E+00
-856.4000E-03,+1.5063207E+00
-856.0000E-03,+1.5063207E+00
-855.6000E-03,+1.5063207E+00
-855.2000E-03,+1.5068232E+00
-854.8000E-03,+1.5063207E+00
-854.4000E-03,+1.5063207E+00
-854.0000E-03,+1.5075769E+00
-853.6000E-03,+1.5060694E+00
-853.2000E-03,+1.5050644E+00
-852.8000E-03,+1.5045619E+00
-852.4000E-03,+1.5028031E+00
-852.0000E-03,+1.5025518E+00
-851.6000E-03,+1.5010443E+00
-851.2000E-03,+1.4995367E+00
-850.8000E-03,+1.4980292E+00
-850.4000E-03,+1.4962704E+00
-850.0000E-03,+1.4937579E+00
-849.6000E-03,+1.4909940E+00
-849.2000E-03,+1.4882302E+00
-848.8000E-03,+1.4854664E+00
-848.4000E-03,+1.4814463E+00
-848.0000E-03,+1.4786825E+00
-847.6000E-03,+1.4759187E+00
-847.2000E-03,+1.4706423E+00
-846.8000E-03,+1.4671247E+00
-846.4000E-03,+1.4626021E+00
-846.0000E-03,+1.4585820E+00
-845.6000E-03,+1.4543106E+00
-845.2000E-03,+1.4487830E+00
-844.8000E-03,+1.4427528E+00
-844.4000E-03,+1.4387327E+00
-844.0000E-03,+1.4347126E+00
-843.6000E-03,+1.4279287E+00
-843.2000E-03,+1.4216473E+00
-842.8000E-03,+1.4156171E+00
-842.4000E-03,+1.4085820E+00
-842.0000E-03,+1.4020493E+00
-841.6000E-03,+1.3952654E+00
-841.2000E-03,+1.3889840E+00
-840.8000E-03,+1.3804413E+00
-840.4000E-03,+1.3736574E+00
-840.0000E-03,+1.3656171E+00
-839.6000E-03,+1.3575769E+00
-839.2000E-03,+1.3490342E+00
-838.8000E-03,+1.3402403E+00
-838.4000E-03,+1.3322001E+00
-838.0000E-03,+1.3229036E+00
-837.6000E-03,+1.3146121E+00
-837.2000E-03,+1.3043106E+00
-836.8000E-03,+1.2962704E+00
-836.4000E-03,+1.2849639E+00
-836.0000E-03,+1.2764212E+00
-835.6000E-03,+1.2656172E+00
-835.2000E-03,+1.2570744E+00
-834.8000E-03,+1.2472754E+00
-834.4000E-03,+1.2392352E+00
-834.0000E-03,+1.2311950E+00
-833.6000E-03,+1.2231548E+00
-833.2000E-03,+1.2168734E+00
-832.8000E-03,+1.2108433E+00
-832.4000E-03,+1.2040594E+00
-832.0000E-03,+1.1985317E+00
-831.6000E-03,+1.1945116E+00
-831.2000E-03,+1.1904915E+00
-830.8000E-03,+1.1864714E+00
-830.4000E-03,+1.1834563E+00
-830.0000E-03,+1.1822001E+00
-829.6000E-03,+1.1809438E+00
-829.2000E-03,+1.1796875E+00
-828.8000E-03,+1.1796875E+00
-828.4000E-03,+1.1796875E+00
-828.0000E-03,+1.1809438E+00
-827.6000E-03,+1.1837076E+00
-827.2000E-03,+1.1864714E+00
-826.8000E-03,+1.1899890E+00
-826.4000E-03,+1.1932553E+00
-826.0000E-03,+1.1985317E+00
-825.6000E-03,+1.2028031E+00
-825.2000E-03,+1.2095870E+00
-824.8000E-03,+1.2156172E+00
-824.4000E-03,+1.2231548E+00
-824.0000E-03,+1.2311950E+00
-823.6000E-03,+1.2392352E+00
-823.2000E-03,+1.2490342E+00
-822.8000E-03,+1.2590845E+00
-822.4000E-03,+1.2706423E+00
-822.0000E-03,+1.2801900E+00
-821.6000E-03,+1.2922503E+00
-821.2000E-03,+1.3043106E+00
-820.8000E-03,+1.3176272E+00
-820.4000E-03,+1.3322001E+00
-820.0000E-03,+1.3467729E+00
-819.6000E-03,+1.3613458E+00
-819.2000E-03,+1.3776775E+00
-818.8000E-03,+1.3950141E+00
-818.4000E-03,+1.4120996E+00
-818.0000E-03,+1.4296875E+00
-817.6000E-03,+1.4460192E+00
-817.2000E-03,+1.4653659E+00
-816.8000E-03,+1.4849639E+00
-816.4000E-03,+1.5050644E+00
-816.0000E-03,+1.5251649E+00
-815.6000E-03,+1.5480292E+00
-815.2000E-03,+1.5696372E+00
-814.8000E-03,+1.5925016E+00
-814.4000E-03,+1.6166222E+00
-814.0000E-03,+1.6407428E+00
-813.6000E-03,+1.6638584E+00
-813.2000E-03,+1.6897377E+00
-812.8000E-03,+1.7143609E+00
-812.4000E-03,+1.7384815E+00
-812.0000E-03,+1.7638584E+00
-811.6000E-03,+1.7869739E+00
-811.2000E-03,+1.8108433E+00
-810.8000E-03,+1.8362202E+00
-810.4000E-03,+1.8615970E+00
-810.0000E-03,+1.8844614E+00
-809.6000E-03,+1.9098382E+00
-809.2000E-03,+1.9352151E+00
-808.8000E-03,+1.9598382E+00
-808.4000E-03,+1.9837076E+00
-808.0000E-03,+2.0075769E+00
-807.6000E-03,+2.0342101E+00
-807.2000E-03,+2.0570744E+00
-806.8000E-03,+2.0824513E+00
-806.4000E-03,+2.1065719E+00
-806.0000E-03,+2.1319488E+00
-805.6000E-03,+2.1560694E+00
-805.2000E-03,+2.1809438E+00
-804.8000E-03,+2.2055669E+00
-804.4000E-03,+2.2296875E+00
-804.0000E-03,+2.2538081E+00
-803.6000E-03,+2.2791850E+00
-803.2000E-03,+2.3045619E+00
-802.8000E-03,+2.3294362E+00
-802.4000E-03,+2.3528031E+00
-802.0000E-03,+2.3781800E+00
-801.6000E-03,+2.4020493E+00
-801.2000E-03,+2.4271749E+00
-800.8000E-03,+2.4492855E+00
-800.4000E-03,+2.4734061E+00
-800.0000E-03,+2.4987830E+00
-799.6000E-03,+2.5229036E+00
-799.2000E-03,+2.5470242E+00
-798.8000E-03,+2.5718985E+00
-798.4000E-03,+2.5965217E+00
-798.0000E-03,+2.6206423E+00
-797.6000E-03,+2.6447629E+00
-797.2000E-03,+2.6706423E+00
-796.8000E-03,+2.6937578E+00
-796.4000E-03,+2.7193860E+00
-796.0000E-03,+2.7437578E+00
-795.6000E-03,+2.7678784E+00
-795.2000E-03,+2.7902402E+00
-794.8000E-03,+2.8103408E+00
-794.4000E-03,+2.8294362E+00
-794.0000E-03,+2.8505418E+00
-793.6000E-03,+2.8688835E+00
-793.2000E-03,+2.8852151E+00
-792.8000E-03,+2.9012955E+00
-792.4000E-03,+2.9151146E+00
-792.0000E-03,+2.9284312E+00
-791.6000E-03,+2.9417478E+00
-791.2000E-03,+2.9530543E+00
-790.8000E-03,+2.9646121E+00
-790.4000E-03,+2.9741598E+00
-790.0000E-03,+2.9824513E+00
-789.6000E-03,+2.9889840E+00
-789.2000E-03,+2.9955166E+00
-788.8000E-03,+3.0002905E+00
-788.4000E-03,+3.0058181E+00
-788.0000E-03,+3.0075769E+00
-787.6000E-03,+3.0098382E+00
-787.2000E-03,+3.0100895E+00
-786.8000E-03,+3.0100895E+00
-786.4000E-03,+3.0078282E+00
-786.0000E-03,+3.0063206E+00
-785.6000E-03,+3.0023005E+00
-785.2000E-03,+2.9977779E+00
-784.8000E-03,+2.9917478E+00
-784.4000E-03,+2.9852151E+00
-784.0000E-03,+2.9774262E+00
-783.6000E-03,+2.9683810E+00
-783.2000E-03,+2.9595870E+00
-782.8000E-03,+2.9475267E+00
-782.4000E-03,+2.9344614E+00
-782.0000E-03,+2.9221498E+00
-781.6000E-03,+2.9075769E+00
-781.2000E-03,+2.8925016E+00
-780.8000E-03,+2.8756674E+00
-780.4000E-03,+2.8590845E+00
-780.0000E-03,+2.8392352E+00
-779.6000E-03,+2.8191347E+00
-779.2000E-03,+2.7990342E+00
-778.8000E-03,+2.7789337E+00
-778.4000E-03,+2.7543106E+00
-778.0000E-03,+2.7299387E+00
-777.6000E-03,+2.7045619E+00
-777.2000E-03,+2.6791850E+00
-776.8000E-03,+2.6510443E+00
-776.4000E-03,+2.6236573E+00
-776.0000E-03,+2.5942604E+00
-775.6000E-03,+2.5623508E+00
-775.2000E-03,+2.5311950E+00
-774.8000E-03,+2.4990342E+00
-774.4000E-03,+2.4646121E+00
-774.0000E-03,+2.4309438E+00
-773.6000E-03,+2.3960191E+00
-773.2000E-03,+2.3615970E+00
-772.8000E-03,+2.3274262E+00
-772.4000E-03,+2.2902403E+00
-772.0000E-03,+2.2563207E+00
-771.6000E-03,+2.2216473E+00
-771.2000E-03,+2.1857176E+00
-770.8000E-03,+2.1502905E+00
-770.4000E-03,+2.1153659E+00
-770.0000E-03,+2.0804413E+00
-769.6000E-03,+2.0445116E+00
-769.2000E-03,+2.0093357E+00
-768.8000E-03,+1.9744111E+00
-768.4000E-03,+1.9392352E+00
-768.0000E-03,+1.9033056E+00
-767.6000E-03,+1.8696372E+00
-767.2000E-03,+1.8347126E+00
-766.8000E-03,+1.7987830E+00
-766.4000E-03,+1.7648634E+00
-766.0000E-03,+1.7299388E+00
-765.6000E-03,+1.6947629E+00
-765.2000E-03,+1.6588332E+00
-764.8000E-03,+1.6246624E+00
-764.4000E-03,+1.5889840E+00
-764.0000E-03,+1.5553156E+00
-763.6000E-03,+1.5203910E+00
-763.2000E-03,+1.4859689E+00
-762.8000E-03,+1.4517981E+00
-762.4000E-03,+1.4178785E+00
-762.0000E-03,+1.3832051E+00
-761.6000E-03,+1.3482805E+00
-761.2000E-03,+1.3120996E+00
-760.8000E-03,+1.2779287E+00
-760.4000E-03,+1.2419991E+00
-760.0000E-03,+1.2060694E+00
-759.6000E-03,+1.1711448E+00
-759.2000E-03,+1.1362202E+00
-758.8000E-03,+1.1012955E+00
-758.4000E-03,+1.0663709E+00
-758.0000E-03,+1.0314463E+00
-757.6000E-03,+995.5167E-03
-757.2000E-03,+960.8433E-03
-756.8000E-03,+925.9187E-03
-756.4000E-03,+890.4915E-03
-756.0000E-03,+856.8232E-03
-755.6000E-03,+822.1498E-03
-755.2000E-03,+789.9890E-03
-754.8000E-03,+757.8282E-03
-754.4000E-03,+726.9237E-03
-754.0000E-03,+698.5317E-03
-753.6000E-03,+671.6473E-03
-753.2000E-03,+644.7629E-03
-752.8000E-03,+619.8885E-03
-752.4000E-03,+595.5167E-03
-752.0000E-03,+572.9036E-03
-751.6000E-03,+552.8031E-03
-751.2000E-03,+533.9589E-03
-750.8000E-03,+514.6121E-03
-750.4000E-03,+497.2755E-03
-750.0000E-03,+481.1950E-03
-749.6000E-03,+468.8835E-03
-749.2000E-03,+454.5619E-03
-748.8000E-03,+442.5016E-03
-748.4000E-03,+432.7026E-03
-748.0000E-03,+423.4061E-03
-747.6000E-03,+415.3659E-03
-747.2000E-03,+408.5820E-03
-746.8000E-03,+401.7981E-03
-746.4000E-03,+398.5317E-03
-746.0000E-03,+395.7679E-03
-745.6000E-03,+393.2554E-03
-745.2000E-03,+393.2554E-03
-744.8000E-03,+393.7579E-03
-744.4000E-03,+394.5116E-03
-744.0000E-03,+398.2805E-03
-743.6000E-03,+401.2956E-03
-743.2000E-03,+408.0795E-03
-742.8000E-03,+414.8634E-03
-742.4000E-03,+422.9036E-03
-742.0000E-03,+433.4564E-03
-741.6000E-03,+443.2554E-03
-741.2000E-03,+455.0644E-03
-740.8000E-03,+468.3810E-03
-740.4000E-03,+481.4463E-03
-740.0000E-03,+497.5267E-03
-739.6000E-03,+513.8584E-03
-739.2000E-03,+532.7026E-03
-738.8000E-03,+552.8031E-03
-738.4000E-03,+572.9036E-03
-738.0000E-03,+596.7729E-03
-737.6000E-03,+619.6373E-03
-737.2000E-03,+643.0041E-03
-736.8000E-03,+667.8785E-03
-736.4000E-03,+693.2553E-03
-736.0000E-03,+718.6322E-03
-735.6000E-03,+745.5167E-03
-735.2000E-03,+773.6574E-03
-734.8000E-03,+801.0443E-03
-734.4000E-03,+829.6875E-03
-734.0000E-03,+858.0795E-03
-733.6000E-03,+887.4765E-03
-733.2000E-03,+914.3609E-03
-732.8000E-03,+942.5016E-03
-732.4000E-03,+969.3860E-03
-732.0000E-03,+995.0141E-03
-731.6000E-03,+1.0203910E+00
-731.2000E-03,+1.0445116E+00
-730.8000E-03,+1.0686322E+00
-730.4000E-03,+1.0927528E+00
-730.0000E-03,+1.1156172E+00
-729.6000E-03,+1.1369739E+00
-729.2000E-03,+1.1583307E+00
-728.8000E-03,+1.1784312E+00
-728.4000E-03,+1.1987830E+00
-728.0000E-03,+1.2186322E+00
-727.6000E-03,+1.2384815E+00
-727.2000E-03,+1.2565719E+00
-726.8000E-03,+1.2744111E+00
-726.4000E-03,+1.2914965E+00
-726.0000E-03,+1.3078282E+00
-725.6000E-03,+1.3226523E+00
-725.2000E-03,+1.3382302E+00
-724.8000E-03,+1.3528031E+00
-724.4000E-03,+1.3681297E+00
-724.0000E-03,+1.3806925E+00
-723.6000E-03,+1.3927528E+00
-723.2000E-03,+1.4035568E+00
-722.8000E-03,+1.4156171E+00
-722.4000E-03,+1.4264212E+00
-722.0000E-03,+1.4359689E+00
-721.6000E-03,+1.4440091E+00
-721.2000E-03,+1.4533056E+00
-720.8000E-03,+1.4600895E+00
-720.4000E-03,+1.4681297E+00
-720.0000E-03,+1.4749136E+00
-719.6000E-03,+1.4804413E+00
-719.2000E-03,+1.4862202E+00
-718.8000E-03,+1.4907428E+00
-718.4000E-03,+1.4957679E+00
-718.0000E-03,+1.4987830E+00
-717.6000E-03,+1.5012955E+00
-717.2000E-03,+1.5030543E+00
-716.8000E-03,+1.5050644E+00
-716.4000E-03,+1.5063207E+00
-716.0000E-03,+1.5063207E+00
-715.6000E-03,+1.5063207E+00
-715.2000E-03,+1.5063207E+00
-714.8000E-03,+1.5068232E+00
-714.4000E-03,+1.5063207E+00
-714.0000E-03,+1.5063207E+00
-713.6000E-03,+1.5063207E+00
-713.2000E-03,+1.5063207E+00
-712.8000E-03,+1.5063207E+00
-712.4000E-03,+1.5073257E+00
-712.0000E-03,+1.5075769E+00
-711.6000E-03,+1.5075769E+00
-711.2000E-03,+1.5075769E+00
-710.8000E-03,+1.5075769E+00
-710.4000E-03,+1.5075769E+00
-710.0000E-03,+1.5075769E+00
-709.6000E-03,+1.5075769E+00
-709.2000E-03,+1.5075769E+00
-708.8000E-03,+1.5075769E+00
-708.4000E-03,+1.5088332E+00
-708.0000E-03,+1.5075769E+00
-707.6000E-03,+1.5078282E+00
-707.2000E-03,+1.5088332E+00
-706.8000E-03,+1.5083307E+00
-706.4000E-03,+1.5088332E+00
-706.0000E-03,+1.5088332E+00
-705.6000E-03,+1.5088332E+00
-705.2000E-03,+1.5088332E+00
-704.8000E-03,+1.5093357E+00
-704.4000E-03,+1.5088332E+00
-704.0000E-03,+1.5088332E+00
-703.6000E-03,+1.5098383E+00
-703.2000E-03,+1.5093357E+00
-702.8000E-03,+1.5095870E+00
-702.4000E-03,+1.5090845E+00
-702.0000E-03,+1.5088332E+00
-701.6000E-03,+1.5100895E+00
-701.2000E-03,+1.5100895E+00
-700.8000E-03,+1.5100895E+00
-700.4000E-03,+1.5113458E+00
-700.0000E-03,+1.5113458E+00
-699.6000E-03,+1.5113458E+00
-699.2000E-03,+1.5113458E+00
-698.8000E-03,+1.5108433E+00
-698.4000E-03,+1.5113458E+00
-698.0000E-03,+1.5100895E+00
-697.6000E-03,+1.5113458E+00
-697.2000E-03,+1.5113458E+00
-696.8000E-03,+1.5113458E+00
-696.4000E-03,+1.5113458E+00
-696.0000E-03,+1.5113458E+00
-695.6000E-03,+1.5113458E+00
-695.2000E-03,+1.5120996E+00
-694.8000E-03,+1.5118483E+00
-694.4000E-03,+1.5126021E+00
-694.0000E-03,+1.5126021E+00
-693.6000E-03,+1.5126021E+00
-693.2000E-03,+1.5131046E+00
-692.8000E-03,+1.5131046E+00
-692.4000E-03,+1.5126021E+00
-692.0000E-03,+1.5126021E+00
-691.6000E-03,+1.5126021E+00
-691.2000E-03,+1.5131046E+00
-690.8000E-03,+1.5126021E+00
-690.4000E-03,+1.5128533E+00
-690.0000E-03,+1.5138584E+00
-689.6000E-03,+1.5126021E+00
-689.2000E-03,+1.5126021E+00
-688.8000E-03,+1.5138584E+00
-688.4000E-03,+1.5138584E+00
-688.0000E-03,+1.5138584E+00
-687.6000E-03,+1.5128533E+00
-687.2000E-03,+1.5138584E+00
-686.8000E-03,+1.5138584E+00
-686.4000E-03,+1.5128533E+00
-686.0000E-03,+1.5138584E+00
-685.6000E-03,+1.5151146E+00
-685.2000E-03,+1.5143609E+00
-684.8000E-03,+1.5146121E+00
-684.4000E-03,+1.5151146E+00
-684.0000E-03,+1.5151146E+00
-683.6000E-03,+1.5151146E+00
-683.2000E-03,+1.5158684E+00
-682.8000E-03,+1.5151146E+00
-682.4000E-03,+1.5151146E+00
-682.0000E-03,+1.5151146E+00
-681.6000E-03,+1.5153659E+00
-681.2000E-03,+1.5151146E+00
-680.8000E-03,+1.5151146E+00
-680.4000E-03,+1.5151146E+00
-680.0000E-03,+1.5151146E+00
-679.6000E-03,+1.5151146E+00
-679.2000E-03,+1.5151146E+00
-678.8000E-03,+1.5151146E+00
-678.4000E-03,+1.5151146E+00
-678.0000E-03,+1.5151146E+00
-677.6000E-03,+1.5163709E+00
-677.2000E-03,+1.5158684E+00
-676.8000E-03,+1.5151146E+00
-676.4000E-03,+1.5151146E+00
-676.0000E-03,+1.5151146E+00
-675.6000E-03,+1.5161197E+00
-675.2000E-03,+1.5151146E+00
-674.8000E-03,+1.5158684E+00
-674.4000E-03,+1.5163709E+00
-674.0000E-03,+1.5163709E+00
-673.6000E-03,+1.5163709E+00
-673.2000E-03,+1.5163709E+00
-672.8000E-03,+1.5163709E+00
-672.4000E-03,+1.5163709E+00
-672.0000E-03,+1.5163709E+00
-671.6000E-03,+1.5166222E+00
-671.2000E-03,+1.5171247E+00
-670.8000E-03,+1.5163709E+00
-670.4000E-03,+1.5176272E+00
-670.0000E-03,+1.5176272E+00
-669.6000E-03,+1.5176272E+00
-669.2000E-03,+1.5176272E+00
-668.8000E-03,+1.5176272E+00
-668.4000E-03,+1.5176272E+00
-668.0000E-03,+1.5176272E+00
-667.6000E-03,+1.5176272E+00
-667.2000E-03,+1.5176272E+00
-666.8000E-03,+1.5176272E+00
-666.4000E-03,+1.5176272E+00
-666.0000E-03,+1.5176272E+00
-665.6000E-03,+1.5178785E+00
-665.2000E-03,+1.5181297E+00
-664.8000E-03,+1.5188835E+00
-664.4000E-03,+1.5178785E+00
-664.0000E-03,+1.5188835E+00
-663.6000E-03,+1.5188835E+00
-663.2000E-03,+1.5188835E+00
-662.8000E-03,+1.5188835E+00
-662.4000E-03,+1.5188835E+00
-662.0000E-03,+1.5201398E+00
-661.6000E-03,+1.5188835E+00
-661.2000E-03,+1.5188835E+00
-660.8000E-03,+1.5188835E+00
-660.4000E-03,+1.5191347E+00
-660.0000E-03,+1.5188835E+00
-659.6000E-03,+1.5198885E+00
-659.2000E-03,+1.5188835E+00
-658.8000E-03,+1.5193860E+00
-658.4000E-03,+1.5188835E+00
-658.0000E-03,+1.5201398E+00
-657.6000E-03,+1.5188835E+00
-657.2000E-03,+1.5201398E+00
-656.8000E-03,+1.5201398E+00
-656.4000E-03,+1.5201398E+00
-656.0000E-03,+1.5201398E+00
-655.6000E-03,+1.5201398E+00
-655.2000E-03,+1.5201398E+00
-654.8000E-03,+1.5201398E+00
-654.4000E-03,+1.5201398E+00
-654.0000E-03,+1.5201398E+00
-653.6000E-03,+1.5203910E+00
-653.2000E-03,+1.5201398E+00
-652.8000E-03,+1.5201398E+00
-652.4000E-03,+1.5201398E+00
-652.0000E-03,+1.5201398E+00
-651.6000E-03,+1.5203910E+00
-651.2000E-03,+1.5206423E+00
-650.8000E-03,+1.5201398E+00
-650.4000E-03,+1.5203910E+00
-650.0000E-03,+1.5201398E+00
-649.6000E-03,+1.5201398E+00
-649.2000E-03,+1.5208935E+00
-648.8000E-03,+1.5213960E+00
-648.4000E-03,+1.5213960E+00
-648.0000E-03,+1.5213960E+00
-647.6000E-03,+1.5224011E+00
-647.2000E-03,+1.5213960E+00
-646.8000E-03,+1.5226523E+00
-646.4000E-03,+1.5213960E+00
-646.0000E-03,+1.5213960E+00
-645.6000E-03,+1.5213960E+00
-645.2000E-03,+1.5213960E+00
-644.8000E-03,+1.5218986E+00
-644.4000E-03,+1.5216473E+00
-644.0000E-03,+1.5226523E+00
-643.6000E-03,+1.5213960E+00
-643.2000E-03,+1.5221498E+00
-642.8000E-03,+1.5218986E+00
-642.4000E-03,+1.5226523E+00
-642.0000E-03,+1.5226523E+00
-641.6000E-03,+1.5226523E+00
-641.2000E-03,+1.5226523E+00
-640.8000E-03,+1.5226523E+00
-640.4000E-03,+1.5226523E+00
-640.0000E-03,+1.5226523E+00
-639.6000E-03,+1.5236573E+00
-639.2000E-03,+1.5231548E+00
-638.8000E-03,+1.5239086E+00
-638.4000E-03,+1.5239086E+00
-638.0000E-03,+1.5239086E+00
-637.6000E-03,+1.5239086E+00
-637.2000E-03,+1.5239086E+00
-636.8000E-03,+1.5239086E+00
-636.4000E-03,+1.5249136E+00
-636.0000E-03,+1.5239086E+00
-635.6000E-03,+1.5239086E+00
-635.2000E-03,+1.5239086E+00
-634.8000E-03,+1.5246624E+00
-634.4000E-03,+1.5241599E+00
-634.0000E-03,+1.5239086E+00
-633.6000E-03,+1.5249136E+00
-633.2000E-03,+1.5251649E+00
-632.8000E-03,+1.5239086E+00
-632.4000E-03,+1.5251649E+00
-632.0000E-03,+1.5251649E+00
-631.6000E-03,+1.5249136E+00
-631.2000E-03,+1.5244111E+00
-630.8000E-03,+1.5256674E+00
-630.4000E-03,+1.5264212E+00
-630.0000E-03,+1.5264212E+00
-629.6000E-03,+1.5264212E+00
-629.2000E-03,+1.5259187E+00
-628.8000E-03,+1.5251649E+00
-628.4000E-03,+1.5264212E+00
-628.0000E-03,+1.5264212E+00
-627.6000E-03,+1.5264212E+00
-627.2000E-03,+1.5264212E+00
-626.8000E-03,+1.5264212E+00
-626.4000E-03,+1.5264212E+00
-626.0000E-03,+1.5264212E+00
-625.6000E-03,+1.5264212E+00
-625.2000E-03,+1.5264212E+00
-624.8000E-03,+1.5264212E+00
-624.4000E-03,+1.5264212E+00
-624.0000E-03,+1.5276774E+00
-623.6000E-03,+1.5276774E+00
-623.2000E-03,+1.5276774E+00
-622.8000E-03,+1.5276774E+00
-622.4000E-03,+1.5264212E+00
-622.0000E-03,+1.5276774E+00
-621.6000E-03,+1.5276774E+00
-621.2000E-03,+1.5276774E+00
-620.8000E-03,+1.5276774E+00
-620.4000E-03,+1.5276774E+00
-620.0000E-03,+1.5276774E+00
-619.6000E-03,+1.5289337E+00
-619.2000E-03,+1.5289337E+00
-618.8000E-03,+1.5289337E+00
-618.4000E-03,+1.5289337E+00
-618.0000E-03,+1.5289337E+00
-617.6000E-03,+1.5289337E+00
-617.2000E-03,+1.5289337E+00
-616.8000E-03,+1.5289337E+00
-616.4000E-03,+1.5289337E+00
-616.0000E-03,+1.5289337E+00
-615.6000E-03,+1.5289337E+00
-615.2000E-03,+1.5296875E+00
-614.8000E-03,+1.5294362E+00
-614.4000E-03,+1.5301900E+00
-614.0000E-03,+1.5301900E+00
-613.6000E-03,+1.5301900E+00
-613.2000E-03,+1.5301900E+00
-612.8000E-03,+1.5289337E+00
-612.4000E-03,+1.5301900E+00
-612.0000E-03,+1.5301900E+00
-611.6000E-03,+1.5301900E+00
-611.2000E-03,+1.5296875E+00
-610.8000E-03,+1.5301900E+00
-610.4000E-03,+1.5301900E+00
-610.0000E-03,+1.5301900E+00
-609.6000E-03,+1.5301900E+00
-609.2000E-03,+1.5306925E+00
-608.8000E-03,+1.5301900E+00
-608.4000E-03,+1.5304413E+00
-608.0000E-03,+1.5314463E+00
-607.6000E-03,+1.5314463E+00
-607.2000E-03,+1.5314463E+00
-606.8000E-03,+1.5322001E+00
-606.4000E-03,+1.5314463E+00
-606.0000E-03,+1.5314463E+00
-605.6000E-03,+1.5314463E+00
-605.2000E-03,+1.5314463E+00
-604.8000E-03,+1.5314463E+00
-604.4000E-03,+1.5314463E+00
-604.0000E-03,+1.5314463E+00
-603.6000E-03,+1.5324513E+00
-603.2000E-03,+1.5319488E+00
-602.8000E-03,+1.5327026E+00
-602.4000E-03,+1.5327026E+00
-602.0000E-03,+1.5327026E+00
-601.6000E-03,+1.5316975E+00
-601.2000E-03,+1.5314463E+00
-600.8000E-03,+1.5332051E+00
-600.4000E-03,+1.5327026E+00
-600.0000E-03,+1.5327026E+00
-599.6000E-03,+1.5327026E+00
-599.2000E-03,+1.5322001E+00
-598.8000E-03,+1.5327026E+00
-598.4000E-03,+1.5337076E+00
-598.0000E-03,+1.5327026E+00
-597.6000E-03,+1.5327026E+00
-597.2000E-03,+1.5327026E+00
-596.8000E-03,+1.5332051E+00
-596.4000E-03,+1.5339589E+00
-596.0000E-03,+1.5339589E+00
-595.6000E-03,+1.5339589E+00
-595.2000E-03,+1.5347126E+00
-594.8000E-03,+1.5347126E+00
-594.4000E-03,+1.5349639E+00
-594.0000E-03,+1.5339589E+00
-593.6000E-03,+1.5339589E+00
-593.2000E-03,+1.5339589E+00
-592.8000E-03,+1.5347126E+00
-592.4000E-03,+1.5352151E+00
-592.0000E-03,+1.5352151E+00
-591.6000E-03,+1.5352151E+00
-591.2000E-03,+1.5339589E+00
-590.8000E-03,+1.5352151E+00
-590.4000E-03,+1.5352151E+00
-590.0000E-03,+1.5364714E+00
-589.6000E-03,+1.5364714E+00
-589.2000E-03,+1.5364714E+00
-588.8000E-03,+1.5364714E+00
-588.4000E-03,+1.5377277E+00
-588.0000E-03,+1.5389840E+00
-587.6000E-03,+1.5379790E+00
-587.2000E-03,+1.5389840E+00
-586.8000E-03,+1.5402403E+00
-586.4000E-03,+1.5402403E+00
-586.0000E-03,+1.5402403E+00
-585.6000E-03,+1.5414965E+00
-585.2000E-03,+1.5414965E+00
-584.8000E-03,+1.5427528E+00
-584.4000E-03,+1.5430041E+00
-584.0000E-03,+1.5440091E+00
-583.6000E-03,+1.5452654E+00
-583.2000E-03,+1.5465217E+00
-582.8000E-03,+1.5470242E+00
-582.4000E-03,+1.5487830E+00
-582.0000E-03,+1.5490342E+00
-581.6000E-03,+1.5502905E+00
-581.2000E-03,+1.5515468E+00
-580.8000E-03,+1.5515468E+00
-580.4000E-03,+1.5540594E+00
-580.0000E-03,+1.5553156E+00
-579.6000E-03,+1.5565719E+00
-579.2000E-03,+1.5570744E+00
-578.8000E-03,+1.5590845E+00
-578.4000E-03,+1.5603408E+00
-578.0000E-03,+1.5603408E+00
-577.6000E-03,+1.5631046E+00
-577.2000E-03,+1.5648634E+00
-576.8000E-03,+1.5653659E+00
-576.4000E-03,+1.5666222E+00
-576.0000E-03,+1.5678785E+00
-575.6000E-03,+1.5706423E+00
-575.2000E-03,+1.5721498E+00
-574.8000E-03,+1.5749136E+00
-574.4000E-03,+1.5754161E+00
-574.0000E-03,+1.5766724E+00
-573.6000E-03,+1.5791850E+00
-573.2000E-03,+1.5804413E+00
-572.8000E-03,+1.5824513E+00
-572.4000E-03,+1.5842101E+00
-572.0000E-03,+1.5854664E+00
-571.6000E-03,+1.5869739E+00
-571.2000E-03,+1.5904915E+00
-570.8000E-03,+1.5917478E+00
-570.4000E-03,+1.5940091E+00
-570.0000E-03,+1.5955166E+00
-569.6000E-03,+1.5982805E+00
-569.2000E-03,+1.6005418E+00
-568.8000E-03,+1.6025518E+00
-568.4000E-03,+1.6043106E+00
-568.0000E-03,+1.6068232E+00
-567.6000E-03,+1.6093357E+00
-567.2000E-03,+1.6118483E+00
-566.8000E-03,+1.6131046E+00
-566.4000E-03,+1.6166222E+00
-566.0000E-03,+1.6181297E+00
-565.6000E-03,+1.6196372E+00
-565.2000E-03,+1.6218986E+00
-564.8000E-03,+1.6239086E+00
-564.4000E-03,+1.6254161E+00
-564.0000E-03,+1.6269237E+00
-563.6000E-03,+1.6296875E+00
-563.2000E-03,+1.6319488E+00
-562.8000E-03,+1.6344614E+00
-562.4000E-03,+1.6369739E+00
-562.0000E-03,+1.6382302E+00
-561.6000E-03,+1.6407428E+00
-561.2000E-03,+1.6419991E+00
-560.8000E-03,+1.6440091E+00
-560.4000E-03,+1.6460192E+00
-560.0000E-03,+1.6482805E+00
-559.6000E-03,+1.6507930E+00
-559.2000E-03,+1.6533056E+00
-558.8000E-03,+1.6558182E+00
-558.4000E-03,+1.6570744E+00
-558.0000E-03,+1.6595870E+00
-557.6000E-03,+1.6608433E+00
-557.2000E-03,+1.6633558E+00
-556.8000E-03,+1.6646121E+00
-556.4000E-03,+1.6668734E+00
-556.0000E-03,+1.6696372E+00
-555.6000E-03,+1.6724011E+00
-555.2000E-03,+1.6751649E+00
-554.8000E-03,+1.6771749E+00
-554.4000E-03,+1.6784312E+00
-554.0000E-03,+1.6809438E+00
-553.6000E-03,+1.6822001E+00
-553.2000E-03,+1.6834563E+00
-552.8000E-03,+1.6867227E+00
-552.4000E-03,+1.6884815E+00
-552.0000E-03,+1.6897377E+00
-551.6000E-03,+1.6935066E+00
-551.2000E-03,+1.6960192E+00
-550.8000E-03,+1.6972754E+00
-550.4000E-03,+1.6997880E+00
-550.0000E-03,+1.7023006E+00
-549.6000E-03,+1.7025518E+00
-549.2000E-03,+1.7053156E+00
-548.8000E-03,+1.7080795E+00
-548.4000E-03,+1.7110945E+00
-548.0000E-03,+1.7136071E+00
-547.6000E-03,+1.7148634E+00
-547.2000E-03,+1.7173759E+00
-546.8000E-03,+1.7186322E+00
-546.4000E-03,+1.7198885E+00
-546.0000E-03,+1.7224011E+00
-545.6000E-03,+1.7249136E+00
-545.2000E-03,+1.7274262E+00
-544.8000E-03,+1.7299388E+00
-544.4000E-03,+1.7311950E+00
-544.0000E-03,+1.7337076E+00
-543.6000E-03,+1.7352151E+00
-543.2000E-03,+1.7374764E+00
-542.8000E-03,+1.7399890E+00
-542.4000E-03,+1.7412453E+00
-542.0000E-03,+1.7425016E+00
-541.6000E-03,+1.7452654E+00
-541.2000E-03,+1.7467729E+00
-540.8000E-03,+1.7495367E+00
-540.4000E-03,+1.7510443E+00
-540.0000E-03,+1.7538081E+00
-539.6000E-03,+1.7563207E+00
-539.2000E-03,+1.7580795E+00
-538.8000E-03,+1.7600895E+00
-538.4000E-03,+1.7623508E+00
-538.0000E-03,+1.7638584E+00
-537.6000E-03,+1.7666222E+00
-537.2000E-03,+1.7681297E+00
-536.8000E-03,+1.7708935E+00
-536.4000E-03,+1.7724011E+00
-536.0000E-03,+1.7751649E+00
-535.6000E-03,+1.7766724E+00
-535.2000E-03,+1.7801900E+00
-534.8000E-03,+1.7809438E+00
-534.4000E-03,+1.7827026E+00
-534.0000E-03,+1.7839589E+00
-533.6000E-03,+1.7879790E+00
-533.2000E-03,+1.7897377E+00
-532.8000E-03,+1.7914965E+00
-532.4000E-03,+1.7927528E+00
-532.0000E-03,+1.7952654E+00
-531.6000E-03,+1.7967729E+00
-531.2000E-03,+1.7982805E+00
-530.8000E-03,+1.7990342E+00
-530.4000E-03,+1.8002905E+00
-530.0000E-03,+1.8028031E+00
-529.6000E-03,+1.8030543E+00
-529.2000E-03,+1.8040594E+00
-528.8000E-03,+1.8048131E+00
-528.4000E-03,+1.8063207E+00
-528.0000E-03,+1.8065719E+00
-527.6000E-03,+1.8078282E+00
-527.2000E-03,+1.8083307E+00
-526.8000E-03,+1.8103408E+00
-526.4000E-03,+1.8103408E+00
-526.0000E-03,+1.8103408E+00
-525.6000E-03,+1.8105920E+00
-525.2000E-03,+1.8120996E+00
-524.8000E-03,+1.8115970E+00
-524.4000E-03,+1.8126021E+00
-524.0000E-03,+1.8128533E+00
-523.6000E-03,+1.8128533E+00
-523.2000E-03,+1.8128533E+00
-522.8000E-03,+1.8123508E+00
-522.4000E-03,+1.8115970E+00
-522.0000E-03,+1.8115970E+00
-521.6000E-03,+1.8115970E+00
-521.2000E-03,+1.8115970E+00
-520.8000E-03,+1.8110945E+00
-520.4000E-03,+1.8100895E+00
-520.0000E-03,+1.8103408E+00
-519.6000E-03,+1.8078282E+00
-519.2000E-03,+1.8070744E+00
-518.8000E-03,+1.8065719E+00
-518.4000E-03,+1.8065719E+00
-518.0000E-03,+1.8065719E+00
-517.6000E-03,+1.8038081E+00
-517.2000E-03,+1.8028031E+00
-516.8000E-03,+1.8020493E+00
-516.4000E-03,+1.8005418E+00
-516.0000E-03,+1.7990342E+00
-515.6000E-03,+1.7975267E+00
-515.2000E-03,+1.7965217E+00
-514.8000E-03,+1.7952654E+00
-514.4000E-03,+1.7942604E+00
-514.0000E-03,+1.7914965E+00
-513.6000E-03,+1.7889840E+00
-513.2000E-03,+1.7877277E+00
-512.8000E-03,+1.7857176E+00
-512.4000E-03,+1.7829538E+00
-512.0000E-03,+1.7814463E+00
-511.6000E-03,+1.7811950E+00
-511.2000E-03,+1.7776774E+00
-510.8000E-03,+1.7764212E+00
-510.4000E-03,+1.7741599E+00
-510.0000E-03,+1.7713960E+00
-509.6000E-03,+1.7688835E+00
-509.2000E-03,+1.7663709E+00
-508.8000E-03,+1.7651146E+00
-508.4000E-03,+1.7628533E+00
-508.0000E-03,+1.7613458E+00
-507.6000E-03,+1.7585820E+00
-507.2000E-03,+1.7565719E+00
-506.8000E-03,+1.7550644E+00
-506.4000E-03,+1.7525518E+00
-506.0000E-03,+1.7500393E+00
-505.6000E-03,+1.7485317E+00
-505.2000E-03,+1.7457679E+00
-504.8000E-03,+1.7437578E+00
-504.4000E-03,+1.7414965E+00
-504.0000E-03,+1.7399890E+00
-503.6000E-03,+1.7384815E+00
-503.2000E-03,+1.7369739E+00
-502.8000E-03,+1.7337076E+00
-502.4000E-03,+1.7324513E+00
-502.0000E-03,+1.7299388E+00
-501.6000E-03,+1.7271749E+00
-501.2000E-03,+1.7249136E+00
-500.8000E-03,+1.7229036E+00
-500.4000E-03,+1.7201398E+00
-500.0000E-03,+1.7198885E+00
-499.6000E-03,+1.7173759E+00
-499.2000E-03,+1.7148634E+00
-498.8000E-03,+1.7128533E+00
-498.4000E-03,+1.7110945E+00
-498.0000E-03,+1.7085820E+00
-497.6000E-03,+1.7058182E+00
-497.2000E-03,+1.7030543E+00
-496.8000E-03,+1.7015468E+00
-496.4000E-03,+1.6997880E+00
-496.0000E-03,+1.6972754E+00
-495.6000E-03,+1.6960192E+00
-495.2000E-03,+1.6930041E+00
-494.8000E-03,+1.6902403E+00
-494.4000E-03,+1.6887327E+00
-494.0000E-03,+1.6872252E+00
-493.6000E-03,+1.6844614E+00
-493.2000E-03,+1.6829538E+00
-492.8000E-03,+1.6809438E+00
-492.4000E-03,+1.6784312E+00
-492.0000E-03,+1.6771749E+00
-491.6000E-03,+1.6756674E+00
-491.2000E-03,+1.6721498E+00
-490.8000E-03,+1.6696372E+00
-490.4000E-03,+1.6673759E+00
-490.0000E-03,+1.6646121E+00
-489.6000E-03,+1.6633558E+00
-489.2000E-03,+1.6615970E+00
-488.8000E-03,+1.6595870E+00
-488.4000E-03,+1.6573257E+00
-488.0000E-03,+1.6558182E+00
-487.6000E-03,+1.6533056E+00
-487.2000E-03,+1.6515468E+00
-486.8000E-03,+1.6487830E+00
-486.4000E-03,+1.6460192E+00
-486.0000E-03,+1.6445116E+00
-485.6000E-03,+1.6430041E+00
-485.2000E-03,+1.6407428E+00
-484.8000E-03,+1.6382302E+00
-484.4000E-03,+1.6359689E+00
-484.0000E-03,+1.6344614E+00
-483.6000E-03,+1.6316975E+00
-483.2000E-03,+1.6301900E+00
-482.8000E-03,+1.6274262E+00
-482.4000E-03,+1.6259187E+00
-482.0000E-03,+1.6231548E+00
-481.6000E-03,+1.6218986E+00
-481.2000E-03,+1.6201398E+00
-480.8000E-03,+1.6181297E+00
-480.4000E-03,+1.6158684E+00
-480.0000E-03,+1.6131046E+00
-479.6000E-03,+1.6118483E+00
-479.2000E-03,+1.6093357E+00
-478.8000E-03,+1.6068232E+00
-478.4000E-03,+1.6045619E+00
-478.0000E-03,+1.6030543E+00
-477.6000E-03,+1.6005418E+00
-477.2000E-03,+1.5992855E+00
-476.8000E-03,+1.5980292E+00
-476.4000E-03,+1.5955166E+00
-476.0000E-03,+1.5930041E+00
-475.6000E-03,+1.5904915E+00
-475.2000E-03,+1.5879790E+00
-474.8000E-03,+1.5859689E+00
-474.4000E-03,+1.5842101E+00
-474.0000E-03,+1.5816975E+00
-473.6000E-03,+1.5804413E+00
-473.2000E-03,+1.5791850E+00
-472.8000E-03,+1.5779287E+00
-472.4000E-03,+1.5766724E+00
-472.0000E-03,+1.5741599E+00
-471.6000E-03,+1.5716473E+00
-471.2000E-03,+1.5706423E+00
-470.8000E-03,+1.5691347E+00
-470.4000E-03,+1.5668734E+00
-470.0000E-03,+1.5653659E+00
-469.6000E-03,+1.5641096E+00
-469.2000E-03,+1.5628533E+00
-468.8000E-03,+1.5615970E+00
-468.4000E-03,+1.5593357E+00
-468.0000E-03,+1.5590845E+00
-467.6000E-03,+1.5575769E+00
-467.2000E-03,+1.5553156E+00
-466.8000E-03,+1.5540594E+00
-466.4000E-03,+1.5530543E+00
-466.0000E-03,+1.5515468E+00
-465.6000E-03,+1.5500393E+00
-465.2000E-03,+1.5485317E+00
-464.8000E-03,+1.5465217E+00
-464.4000E-03,+1.5465217E+00
-464.0000E-03,+1.5452654E+00
-463.6000E-03,+1.5437579E+00
-463.2000E-03,+1.5427528E+00
-462.8000E-03,+1.5419991E+00
-462.4000E-03,+1.5402403E+00
-462.0000E-03,+1.5402403E+00
-461.6000E-03,+1.5392352E+00
-461.2000E-03,+1.5389840E+00
-460.8000E-03,+1.5369739E+00
-460.4000E-03,+1.5377277E+00
-460.0000E-03,+1.5352151E+00
-459.6000E-03,+1.5352151E+00
-459.2000E-03,+1.5339589E+00
-458.8000E-03,+1.5327026E+00
-458.4000E-03,+1.5327026E+00
-458.0000E-03,+1.5339589E+00
-457.6000E-03,+1.5311950E+00
-457.2000E-03,+1.5296875E+00
-456.8000E-03,+1.5289337E+00
-456.4000E-03,+1.5289337E+00
-456.0000E-03,+1.5289337E+00
-455.6000E-03,+1.5276774E+00
-455.2000E-03,+1.5264212E+00
-454.8000E-03,+1.5264212E+00
-454.4000E-03,+1.5264212E+00
-454.0000E-03,+1.5251649E+00
-453.6000E-03,+1.5251649E+00
-453.2000E-03,+1.5251649E+00
-452.8000E-03,+1.5244111E+00
-452.4000E-03,+1.5251649E+00
-452.0000E-03,+1.5239086E+00
-451.6000E-03,+1.5236573E+00
-451.2000E-03,+1.5234061E+00
-450.8000E-03,+1.5226523E+00
-450.4000E-03,+1.5216473E+00
-450.0000E-03,+1.5213960E+00
-449.6000E-03,+1.5213960E+00
-449.2000E-03,+1.5206423E+00
-448.8000E-03,+1.5201398E+00
-448.4000E-03,+1.5201398E+00
-448.0000E-03,+1.5201398E+00
-447.6000E-03,+1.5191347E+00
-447.2000E-03,+1.5188835E+00
-446.8000E-03,+1.5188835E+00
-446.4000E-03,+1.5188835E+00
-446.0000E-03,+1.5176272E+00
-445.6000E-03,+1.5186322E+00
-445.2000E-03,+1.5176272E+00
-444.8000E-03,+1.5176272E+00
-444.4000E-03,+1.5166222E+00
-444.0000E-03,+1.5176272E+00
-443.6000E-03,+1.5163709E+00
-443.2000E-03,+1.5156171E+00
-442.8000E-03,+1.5151146E+00
-442.4000E-03,+1.5151146E+00
-442.0000E-03,+1.5138584E+00
-441.6000E-03,+1.5138584E+00
-441.2000E-03,+1.5146121E+00
-440.8000E-03,+1.5138584E+00
-440.4000E-03,+1.5138584E+00
-440.0000E-03,+1.5126021E+00
-439.6000E-03,+1.5126021E+00
-439.2000E-03,+1.5126021E+00
-438.8000E-03,+1.5118483E+00
-438.4000E-03,+1.5100895E+00
-438.0000E-03,+1.5100895E+00
-437.6000E-03,+1.5100895E+00
-437.2000E-03,+1.5108433E+00
-436.8000E-03,+1.5100895E+00
-436.4000E-03,+1.5090845E+00
-436.0000E-03,+1.5088332E+00
-435.6000E-03,+1.5085820E+00
-435.2000E-03,+1.5083307E+00
-434.8000E-03,+1.5088332E+00
-434.4000E-03,+1.5075769E+00
-434.0000E-03,+1.5075769E+00
-433.6000E-03,+1.5075769E+00
-433.2000E-03,+1.5075769E+00
-432.8000E-03,+1.5075769E+00
-432.4000E-03,+1.5075769E+00
-432.0000E-03,+1.5063207E+00
-431.6000E-03,+1.5063207E+00
-431.2000E-03,+1.5063207E+00
-430.8000E-03,+1.5075769E+00
-430.4000E-03,+1.5063207E+00
-430.0000E-03,+1.5063207E+00
-429.6000E-03,+1.5050644E+00
-429.2000E-03,+1.5050644E+00
-428.8000E-03,+1.5063207E+00
-428.4000E-03,+1.5053156E+00
-428.0000E-03,+1.5050644E+00
-427.6000E-03,+1.5050644E+00
-427.2000E-03,+1.5050644E+00
-426.8000E-03,+1.5050644E+00
-426.4000E-03,+1.5050644E+00
-426.0000E-03,+1.5050644E+00
-425.6000E-03,+1.5038081E+00
-425.2000E-03,+1.5043106E+00
-424.8000E-03,+1.5050644E+00
-424.4000E-03,+1.5050644E+00
-424.0000E-03,+1.5050644E+00
-423.6000E-03,+1.5038081E+00
-423.2000E-03,+1.5038081E+00
-422.8000E-03,+1.5038081E+00
-422.4000E-03,+1.5048131E+00
-422.0000E-03,+1.5038081E+00
-421.6000E-03,+1.5038081E+00
-421.2000E-03,+1.5038081E+00
-420.8000E-03,+1.5045619E+00
-420.4000E-03,+1.5040594E+00
-420.0000E-03,+1.5038081E+00
-419.6000E-03,+1.5038081E+00
-419.2000E-03,+1.5045619E+00
-418.8000E-03,+1.5038081E+00
-418.4000E-03,+1.5040594E+00
-418.0000E-03,+1.5038081E+00
-417.6000E-03,+1.5038081E+00
-417.2000E-03,+1.5045619E+00
-416.8000E-03,+1.5038081E+00
-416.4000E-03,+1.5048131E+00
-416.0000E-03,+1.5038081E+00
-415.6000E-03,+1.5048131E+00
-415.2000E-03,+1.5050644E+00
-414.8000E-03,+1.5038081E+00
-414.4000E-03,+1.5038081E+00
-414.0000E-03,+1.5038081E+00
-413.6000E-03,+1.5048131E+00
-413.2000E-03,+1.5038081E+00
-412.8000E-03,+1.5043106E+00
-412.4000E-03,+1.5038081E+00
-412.0000E-03,+1.5050644E+00
-411.6000E-03,+1.5040594E+00
-411.2000E-03,+1.5045619E+00
-410.8000E-03,+1.5038081E+00
-410.4000E-03,+1.5040594E+00
-410.0000E-03,+1.5038081E+00
-409.6000E-03,+1.5038081E+00
-409.2000E-03,+1.5045619E+00
-408.8000E-03,+1.5043106E+00
-408.4000E-03,+1.5038081E+00
-408.0000E-03,+1.5050644E+00
-407.6000E-03,+1.5048131E+00
-407.2000E-03,+1.5043106E+00
-406.8000E-03,+1.5038081E+00
-406.4000E-03,+1.5038081E+00
-406.0000E-03,+1.5038081E+00
-405.6000E-03,+1.5038081E+00
-405.2000E-03,+1.5038081E+00
-404.8000E-03,+1.5030543E+00
-404.4000E-03,+1.5038081E+00
-404.0000E-03,+1.5038081E+00
-403.6000E-03,+1.5040594E+00
-403.2000E-03,+1.5038081E+00
-402.8000E-03,+1.5038081E+00
-402.4000E-03,+1.5038081E+00
-402.0000E-03,+1.5038081E+00
-401.6000E-03,+1.5040594E+00
-401.2000E-03,+1.5038081E+00
-400.8000E-03,+1.5038081E+00
-400.4000E-03,+1.5038081E+00
-400.0000E-03,+1.5038081E+00
-399.6000E-03,+1.5040594E+00
-399.2000E-03,+1.5043106E+00
-398.8000E-03,+1.5043106E+00
-398.4000E-03,+1.5040594E+00
-398.0000E-03,+1.5038081E+00
-397.6000E-03,+1.5038081E+00
-397.2000E-03,+1.5038081E+00
-396.8000E-03,+1.5045619E+00
-396.4000E-03,+1.5040594E+00
-396.0000E-03,+1.5038081E+00
-395.6000E-03,+1.5038081E+00
-395.2000E-03,+1.5045619E+00
-394.8000E-03,+1.5038081E+00
-394.4000E-03,+1.5038081E+00
-394.0000E-03,+1.5038081E+00
-393.6000E-03,+1.5038081E+00
-393.2000E-03,+1.5038081E+00
-392.8000E-03,+1.5038081E+00
-392.4000E-03,+1.5038081E+00
-392.0000E-03,+1.5038081E+00
-391.6000E-03,+1.5038081E+00
-391.2000E-03,+1.5038081E+00
-390.8000E-03,+1.5038081E+00
-390.4000E-03,+1.5038081E+00
-390.0000E-03,+1.5038081E+00
-389.6000E-03,+1.5038081E+00
-389.2000E-03,+1.5038081E+00
-388.8000E-03,+1.5038081E+00
-388.4000E-03,+1.5048131E+00
-388.0000E-03,+1.5038081E+00
-387.6000E-03,+1.5038081E+00
-387.2000E-03,+1.5038081E+00
-386.8000E-03,+1.5050644E+00
-386.4000E-03,+1.5050644E+00
-386.0000E-03,+1.5038081E+00
-385.6000E-03,+1.5038081E+00
-385.2000E-03,+1.5038081E+00
-384.8000E-03,+1.5038081E+00
-384.4000E-03,+1.5048131E+00
-384.0000E-03,+1.5038081E+00
-383.6000E-03,+1.5048131E+00
-383.2000E-03,+1.5038081E+00
-382.8000E-03,+1.5038081E+00
-382.4000E-03,+1.5040594E+00
-382.0000E-03,+1.5038081E+00
-381.6000E-03,+1.5038081E+00
-381.2000E-03,+1.5038081E+00
-380.8000E-03,+1.5038081E+00
-380.4000E-03,+1.5038081E+00
-380.0000E-03,+1.5038081E+00
-379.6000E-03,+1.5038081E+00
-379.2000E-03,+1.5038081E+00
-378.8000E-03,+1.5038081E+00
-378.4000E-03,+1.5038081E+00
-378.0000E-03,+1.5025518E+00
-377.6000E-03,+1.5048131E+00
-377.2000E-03,+1.5038081E+00
-376.8000E-03,+1.5033056E+00
-376.4000E-03,+1.5048131E+00
-376.0000E-03,+1.5038081E+00
-375.6000E-03,+1.5038081E+00
-375.2000E-03,+1.5038081E+00
-374.8000E-03,+1.5045619E+00
-374.4000E-03,+1.5048131E+00
-374.0000E-03,+1.5038081E+00
-373.6000E-03,+1.5038081E+00
-373.2000E-03,+1.5038081E+00
-372.8000E-03,+1.5038081E+00
-372.4000E-03,+1.5038081E+00
-372.0000E-03,+1.5038081E+00
-371.6000E-03,+1.5040594E+00
-371.2000E-03,+1.5038081E+00
-370.8000E-03,+1.5038081E+00
-370.4000E-03,+1.5038081E+00
-370.0000E-03,+1.5038081E+00
-369.6000E-03,+1.5038081E+00
-369.2000E-03,+1.5038081E+00
-368.8000E-03,+1.5038081E+00
-368.4000E-03,+1.5038081E+00
-368.0000E-03,+1.5050644E+00
-367.6000E-03,+1.5038081E+00
-367.2000E-03,+1.5050644E+00
-366.8000E-03,+1.5038081E+00
-366.4000E-03,+1.5048131E+00
-366.0000E-03,+1.5038081E+00
-365.6000E-03,+1.5038081E+00
-365.2000E-03,+1.5038081E+00
-364.8000E-03,+1.5038081E+00
-364.4000E-03,+1.5038081E+00
-364.0000E-03,+1.5038081E+00
-363.6000E-03,+1.5038081E+00
-363.2000E-03,+1.5038081E+00
-362.8000E-03,+1.5038081E+00
-362.4000E-03,+1.5040594E+00
-362.0000E-03,+1.5038081E+00
-361.6000E-03,+1.5025518E+00
-361.2000E-03,+1.5033056E+00
-360.8000E-03,+1.5038081E+00
-360.4000E-03,+1.5038081E+00
-360.0000E-03,+1.5038081E+00
-359.6000E-03,+1.5040594E+00
-359.2000E-03,+1.5038081E+00
-358.8000E-03,+1.5038081E+00
-358.4000E-03,+1.5038081E+00
-358.0000E-03,+1.5038081E+00
-357.6000E-03,+1.5035568E+00
-357.2000E-03,+1.5038081E+00
-356.8000E-03,+1.5038081E+00
-356.4000E-03,+1.5038081E+00
-356.0000E-03,+1.5038081E+00
-355.6000E-03,+1.5038081E+00
-355.2000E-03,+1.5045619E+00
-354.8000E-03,+1.5045619E+00
-354.4000E-03,+1.5038081E+00
-354.0000E-03,+1.5038081E+00
-353.6000E-03,+1.5035568E+00
-353.2000E-03,+1.5038081E+00
-352.8000E-03,+1.5038081E+00
-352.4000E-03,+1.5048131E+00
-352.0000E-03,+1.5025518E+00
-351.6000E-03,+1.5038081E+00
-351.2000E-03,+1.5038081E+00
-350.8000E-03,+1.5038081E+00
-350.4000E-03,+1.5038081E+00
-350.0000E-03,+1.5038081E+00
-349.6000E-03,+1.5038081E+00
-349.2000E-03,+1.5038081E+00
-348.8000E-03,+1.5038081E+00
-348.4000E-03,+1.5038081E+00
-348.0000E-03,+1.5038081E+00
-347.6000E-03,+1.5038081E+00
-347.2000E-03,+1.5038081E+00
-346.8000E-03,+1.5050644E+00
-346.4000E-03,+1.5038081E+00
-346.0000E-03,+1.5038081E+00
-345.6000E-03,+1.5038081E+00
-345.2000E-03,+1.5030543E+00
-344.8000E-03,+1.5050644E+00
-344.4000E-03,+1.5038081E+00
-344.0000E-03,+1.5038081E+00
-343.6000E-03,+1.5038081E+00
-343.2000E-03,+1.5030543E+00
-342.8000E-03,+1.5038081E+00
-342.4000E-03,+1.5038081E+00
-342.0000E-03,+1.5038081E+00
-341.6000E-03,+1.5038081E+00
-341.2000E-03,+1.5038081E+00
-340.8000E-03,+1.5038081E+00
-340.4000E-03,+1.5038081E+00
-340.0000E-03,+1.5038081E+00
-339.6000E-03,+1.5038081E+00
-339.2000E-03,+1.5038081E+00
-338.8000E-03,+1.5038081E+00
-338.4000E-03,+1.5038081E+00
-338.0000E-03,+1.5038081E+00
-337.6000E-03,+1.5038081E+00
-337.2000E-03,+1.5038081E+00
-336.8000E-03,+1.5038081E+00
-336.4000E-03,+1.5040594E+00
-336.0000E-03,+1.5038081E+00
-335.6000E-03,+1.5040594E+00
-335.2000E-03,+1.5038081E+00
-334.8000E-03,+1.5045619E+00
-334.4000E-03,+1.5038081E+00
-334.0000E-03,+1.5050644E+00
-333.6000E-03,+1.5038081E+00
-333.2000E-03,+1.5030543E+00
-332.8000E-03,+1.5038081E+00
-332.4000E-03,+1.5038081E+00
-332.0000E-03,+1.5038081E+00
-331.6000E-03,+1.5028031E+00
-331.2000E-03,+1.5038081E+00
-330.8000E-03,+1.5038081E+00
-330.4000E-03,+1.5048131E+00
-330.0000E-03,+1.5038081E+00
-329.6000E-03,+1.5038081E+00
-329.2000E-03,+1.5038081E+00
-328.8000E-03,+1.5038081E+00
-328.4000E-03,+1.5038081E+00
-328.0000E-03,+1.5038081E+00
-327.6000E-03,+1.5040594E+00
-327.2000E-03,+1.5038081E+00
-326.8000E-03,+1.5038081E+00
-326.4000E-03,+1.5038081E+00
-326.0000E-03,+1.5038081E+00
-325.6000E-03,+1.5038081E+00
-325.2000E-03,+1.5045619E+00
-324.8000E-03,+1.5038081E+00
-324.4000E-03,+1.5050644E+00
-324.0000E-03,+1.5050644E+00
-323.6000E-03,+1.5038081E+00
-323.2000E-03,+1.5045619E+00
-322.8000E-03,+1.5038081E+00
-322.4000E-03,+1.5038081E+00
-322.0000E-03,+1.5038081E+00
-321.6000E-03,+1.5025518E+00
-321.2000E-03,+1.5025518E+00
-320.8000E-03,+1.5030543E+00
-320.4000E-03,+1.5038081E+00
-320.0000E-03,+1.5025518E+00
-319.6000E-03,+1.5038081E+00
-319.2000E-03,+1.5038081E+00
-318.8000E-03,+1.5038081E+00
-318.4000E-03,+1.5028031E+00
-318.0000E-03,+1.5038081E+00
-317.6000E-03,+1.5038081E+00
-317.2000E-03,+1.5045619E+00
-316.8000E-03,+1.5045619E+00
-316.4000E-03,+1.5050644E+00
-316.0000E-03,+1.5050644E+00
-315.6000E-03,+1.5060694E+00
-315.2000E-03,+1.5058182E+00
-314.8000E-03,+1.5043106E+00
-314.4000E-03,+1.5050644E+00
-314.0000E-03,+1.5050644E+00
-313.6000E-03,+1.5050644E+00
-313.2000E-03,+1.5050644E+00
-312.8000E-03,+1.5045619E+00
-312.4000E-03,+1.5038081E+00
-312.0000E-03,+1.5038081E+00
-311.6000E-03,+1.5038081E+00
-311.2000E-03,+1.5038081E+00
-310.8000E-03,+1.5050644E+00
-310.4000E-03,+1.5040594E+00
-310.0000E-03,+1.5038081E+00
-309.6000E-03,+1.5038081E+00
-309.2000E-03,+1.5050644E+00
-308.8000E-03,+1.5050644E+00
-308.4000E-03,+1.5050644E+00
-308.0000E-03,+1.5050644E+00
-307.6000E-03,+1.5038081E+00
-307.2000E-03,+1.5050644E+00
-306.8000E-03,+1.5043106E+00
-306.4000E-03,+1.5050644E+00
-306.0000E-03,+1.5038081E+00
-305.6000E-03,+1.5038081E+00
-305.2000E-03,+1.5050644E+00
-304.8000E-03,+1.5050644E+00
-304.4000E-03,+1.5048131E+00
-304.0000E-03,+1.5038081E+00
-303.6000E-03,+1.5038081E+00
-303.2000E-03,+1.5043106E+00
-302.8000E-03,+1.5038081E+00
-302.4000E-03,+1.5038081E+00
-302.0000E-03,+1.5050644E+00
-301.6000E-03,+1.5038081E+00
-301.2000E-03,+1.5038081E+00
-300.8000E-03,+1.5045619E+00
-300.4000E-03,+1.5048131E+00
-300.0000E-03,+1.5050644E+00
-299.6000E-03,+1.5038081E+00
-299.2000E-03,+1.5045619E+00
-298.8000E-03,+1.5050644E+00
-298.4000E-03,+1.5050644E+00
-298.0000E-03,+1.5038081E+00
-297.6000E-03,+1.5038081E+00
-297.2000E-03,+1.5043106E+00
-296.8000E-03,+1.5050644E+00
-296.4000E-03,+1.5050644E+00
-296.0000E-03,+1.5038081E+00
-295.6000E-03,+1.5048131E+00
-295.2000E-03,+1.5043106E+00
-294.8000E-03,+1.5050644E+00
-294.4000E-03,+1.5050644E+00
-294.0000E-03,+1.5038081E+00
-293.6000E-03,+1.5050644E+00
-293.2000E-03,+1.5050644E+00
-292.8000E-03,+1.5043106E+00
-292.4000E-03,+1.5050644E+00
-292.0000E-03,+1.5050644E+00
-291.6000E-03,+1.5050644E+00
-291.2000E-03,+1.5045619E+00
-290.8000E-03,+1.5043106E+00
-290.4000E-03,+1.5038081E+00
-290.0000E-03,+1.5038081E+00
-289.6000E-03,+1.5038081E+00
-289.2000E-03,+1.5038081E+00
-288.8000E-03,+1.5038081E+00
-288.4000E-03,+1.5050644E+00
-288.0000E-03,+1.5038081E+00
-287.6000E-03,+1.5040594E+00
-287.2000E-03,+1.5043106E+00
-286.8000E-03,+1.5050644E+00
-286.4000E-03,+1.5038081E+00
-286.0000E-03,+1.5038081E+00
-285.6000E-03,+1.5040594E+00
-285.2000E-03,+1.5050644E+00
-284.8000E-03,+1.5038081E+00
-284.4000E-03,+1.5038081E+00
-284.0000E-03,+1.5038081E+00
-283.6000E-03,+1.5050644E+00
-283.2000E-03,+1.5050644E+00
-282.8000E-03,+1.5043106E+00
-282.4000E-03,+1.5050644E+00
-282.0000E-03,+1.5050644E+00
-281.6000E-03,+1.5058182E+00
-281.2000E-03,+1.5080795E+00
-280.8000E-03,+1.5075769E+00
-280.4000E-03,+1.5078282E+00
-280.0000E-03,+1.5075769E+00
-279.6000E-03,+1.5085820E+00
-279.2000E-03,+1.5075769E+00
-278.8000E-03,+1.5075769E+00
-278.4000E-03,+1.5075769E+00
-278.0000E-03,+1.5088332E+00
-277.6000E-03,+1.5075769E+00
-277.2000E-03,+1.5075769E+00
-276.8000E-03,+1.5075769E+00
-276.4000E-03,+1.5065719E+00
-276.0000E-03,+1.5075769E+00
-275.6000E-03,+1.5075769E+00
-275.2000E-03,+1.5075769E+00
-274.8000E-03,+1.5075769E+00
-274.4000E-03,+1.5075769E+00
-274.0000E-03,+1.5075769E+00
-273.6000E-03,+1.5085820E+00
-273.2000E-03,+1.5080795E+00
-272.8000E-03,+1.5075769E+00
-272.4000E-03,+1.5075769E+00
-272.0000E-03,+1.5075769E+00
-271.6000E-03,+1.5075769E+00
-271.2000E-03,+1.5075769E+00
-270.8000E-03,+1.5075769E+00
-270.4000E-03,+1.5075769E+00
-270.0000E-03,+1.5075769E+00
-269.6000E-03,+1.5088332E+00
-269.2000E-03,+1.5075769E+00
-268.8000E-03,+1.5088332E+00
-268.4000E-03,+1.5085820E+00
-268.0000E-03,+1.5088332E+00
-267.6000E-03,+1.5088332E+00
-267.2000E-03,+1.5088332E+00
-266.8000E-03,+1.5100895E+00
-266.4000E-03,+1.5090845E+00
-266.0000E-03,+1.5100895E+00
-265.6000E-03,+1.5088332E+00
-265.2000E-03,+1.5095870E+00
-264.8000E-03,+1.5100895E+00
-264.4000E-03,+1.5100895E+00
-264.0000E-03,+1.5100895E+00
-263.6000E-03,+1.5103408E+00
-263.2000E-03,+1.5118483E+00
-262.8000E-03,+1.5113458E+00
-262.4000E-03,+1.5113458E+00
-262.0000E-03,+1.5126021E+00
-261.6000E-03,+1.5113458E+00
-261.2000E-03,+1.5113458E+00
-260.8000E-03,+1.5126021E+00
-260.4000E-03,+1.5126021E+00
-260.0000E-03,+1.5113458E+00
-259.6000E-03,+1.5126021E+00
-259.2000E-03,+1.5126021E+00
-258.8000E-03,+1.5126021E+00
-258.4000E-03,+1.5126021E+00
-258.0000E-03,+1.5126021E+00
-257.6000E-03,+1.5126021E+00
-257.2000E-03,+1.5126021E+00
-256.8000E-03,+1.5126021E+00
-256.4000E-03,+1.5126021E+00
-256.0000E-03,+1.5138584E+00
-255.6000E-03,+1.5136071E+00
-255.2000E-03,+1.5138584E+00
-254.8000E-03,+1.5138584E+00
-254.4000E-03,+1.5138584E+00
-254.0000E-03,+1.5138584E+00
-253.6000E-03,+1.5138584E+00
-253.2000E-03,+1.5151146E+00
-252.8000E-03,+1.5143609E+00
-252.4000E-03,+1.5141096E+00
-252.0000E-03,+1.5138584E+00
-251.6000E-03,+1.5148634E+00
-251.2000E-03,+1.5151146E+00
-250.8000E-03,+1.5151146E+00
-250.4000E-03,+1.5161197E+00
-250.0000E-03,+1.5163709E+00
-249.6000E-03,+1.5161197E+00
-249.2000E-03,+1.5151146E+00
-248.8000E-03,+1.5158684E+00
-248.4000E-03,+1.5163709E+00
-248.0000E-03,+1.5163709E+00
-247.6000E-03,+1.5161197E+00
-247.2000E-03,+1.5163709E+00
-246.8000E-03,+1.5163709E+00
-246.4000E-03,+1.5163709E+00
-246.0000E-03,+1.5163709E+00
-245.6000E-03,+1.5163709E+00
-245.2000E-03,+1.5168734E+00
-244.8000E-03,+1.5176272E+00
-244.4000E-03,+1.5176272E+00
-244.0000E-03,+1.5176272E+00
-243.6000E-03,+1.5166222E+00
-243.2000E-03,+1.5176272E+00
-242.8000E-03,+1.5176272E+00
-242.4000E-03,+1.5188835E+00
-242.0000E-03,+1.5188835E+00
-241.6000E-03,+1.5198885E+00
-241.2000E-03,+1.5196372E+00
-240.8000E-03,+1.5196372E+00
-240.4000E-03,+1.5201398E+00
-240.0000E-03,+1.5201398E+00
-239.6000E-03,+1.5213960E+00
-239.2000E-03,+1.5226523E+00
-238.8000E-03,+1.5234061E+00
-238.4000E-03,+1.5239086E+00
-238.0000E-03,+1.5264212E+00
-237.6000E-03,+1.5266724E+00
-237.2000E-03,+1.5276774E+00
-236.8000E-03,+1.5289337E+00
-236.4000E-03,+1.5314463E+00
-236.0000E-03,+1.5339589E+00
-235.6000E-03,+1.5352151E+00
-235.2000E-03,+1.5369739E+00
-234.8000E-03,+1.5384815E+00
-234.4000E-03,+1.5399890E+00
-234.0000E-03,+1.5414965E+00
-233.6000E-03,+1.5432553E+00
-233.2000E-03,+1.5457679E+00
-232.8000E-03,+1.5472754E+00
-232.4000E-03,+1.5500393E+00
-232.0000E-03,+1.5528031E+00
-231.6000E-03,+1.5553156E+00
-231.2000E-03,+1.5578282E+00
-230.8000E-03,+1.5598383E+00
-230.4000E-03,+1.5613458E+00
-230.0000E-03,+1.5641096E+00
-229.6000E-03,+1.5666222E+00
-229.2000E-03,+1.5696372E+00
-228.8000E-03,+1.5724011E+00
-228.4000E-03,+1.5764212E+00
-228.0000E-03,+1.5779287E+00
-227.6000E-03,+1.5806925E+00
-227.2000E-03,+1.5842101E+00
-226.8000E-03,+1.5874764E+00
-226.4000E-03,+1.5912453E+00
-226.0000E-03,+1.5942604E+00
-225.6000E-03,+1.5970242E+00
-225.2000E-03,+1.6010443E+00
-224.8000E-03,+1.6050644E+00
-224.4000E-03,+1.6078282E+00
-224.0000E-03,+1.6118483E+00
-223.6000E-03,+1.6171247E+00
-223.2000E-03,+1.6206423E+00
-222.8000E-03,+1.6239086E+00
-222.4000E-03,+1.6279287E+00
-222.0000E-03,+1.6319488E+00
-221.6000E-03,+1.6362202E+00
-221.2000E-03,+1.6404915E+00
-220.8000E-03,+1.6447629E+00
-220.4000E-03,+1.6502905E+00
-220.0000E-03,+1.6545619E+00
-219.6000E-03,+1.6575769E+00
-219.2000E-03,+1.6618483E+00
-218.8000E-03,+1.6666222E+00
-218.4000E-03,+1.6718986E+00
-218.0000E-03,+1.6759187E+00
-217.6000E-03,+1.6799388E+00
-217.2000E-03,+1.6839589E+00
-216.8000E-03,+1.6872252E+00
-216.4000E-03,+1.6922503E+00
-216.0000E-03,+1.6972754E+00
-215.6000E-03,+1.7012955E+00
-215.2000E-03,+1.7060694E+00
-214.8000E-03,+1.7110945E+00
-214.4000E-03,+1.7156171E+00
-214.0000E-03,+1.7198885E+00
-213.6000E-03,+1.7229036E+00
-213.2000E-03,+1.7279287E+00
-212.8000E-03,+1.7332051E+00
-212.4000E-03,+1.7372252E+00
-212.0000E-03,+1.7399890E+00
-211.6000E-03,+1.7440091E+00
-211.2000E-03,+1.7487830E+00
-210.8000E-03,+1.7533056E+00
-210.4000E-03,+1.7585820E+00
-210.0000E-03,+1.7626021E+00
-209.6000E-03,+1.7676272E+00
-209.2000E-03,+1.7706423E+00
-208.8000E-03,+1.7759187E+00
-208.4000E-03,+1.7799388E+00
-208.0000E-03,+1.7827026E+00
-207.6000E-03,+1.7869739E+00
-207.2000E-03,+1.7919991E+00
-206.8000E-03,+1.7960192E+00
-206.4000E-03,+1.8002905E+00
-206.0000E-03,+1.8040594E+00
-205.6000E-03,+1.8093357E+00
-205.2000E-03,+1.8138584E+00
-204.8000E-03,+1.8173759E+00
-204.4000E-03,+1.8239086E+00
-204.0000E-03,+1.8266724E+00
-203.6000E-03,+1.8309438E+00
-203.2000E-03,+1.8372252E+00
-202.8000E-03,+1.8412453E+00
-202.4000E-03,+1.8452654E+00
-202.0000E-03,+1.8492855E+00
-201.6000E-03,+1.8543106E+00
-201.2000E-03,+1.8585820E+00
-200.8000E-03,+1.8613458E+00
-200.4000E-03,+1.8663709E+00
-200.0000E-03,+1.8706423E+00
-199.6000E-03,+1.8756674E+00
-199.2000E-03,+1.8786825E+00
-198.8000E-03,+1.8832051E+00
-198.4000E-03,+1.8879790E+00
-198.0000E-03,+1.8919991E+00
-197.6000E-03,+1.8960192E+00
-197.2000E-03,+1.9012955E+00
-196.8000E-03,+1.9048131E+00
-196.4000E-03,+1.9080795E+00
-196.0000E-03,+1.9146121E+00
-195.6000E-03,+1.9186322E+00
-195.2000E-03,+1.9226523E+00
-194.8000E-03,+1.9254161E+00
-194.4000E-03,+1.9309438E+00
-194.0000E-03,+1.9359689E+00
-193.6000E-03,+1.9402403E+00
-193.2000E-03,+1.9440091E+00
-192.8000E-03,+1.9492855E+00
-192.4000E-03,+1.9530543E+00
-192.0000E-03,+1.9585820E+00
-191.6000E-03,+1.9626021E+00
-191.2000E-03,+1.9661197E+00
-190.8000E-03,+1.9706423E+00
-190.4000E-03,+1.9746624E+00
-190.0000E-03,+1.9799388E+00
-189.6000E-03,+1.9839589E+00
-189.2000E-03,+1.9879790E+00
-188.8000E-03,+1.9922503E+00
-188.4000E-03,+1.9972754E+00
-188.0000E-03,+2.0000393E+00
-187.6000E-03,+2.0053156E+00
-187.2000E-03,+2.0093357E+00
-186.8000E-03,+2.0146121E+00
-186.4000E-03,+2.0186322E+00
-186.0000E-03,+2.0226523E+00
-185.6000E-03,+2.0266724E+00
-185.2000E-03,+2.0319488E+00
-184.8000E-03,+2.0359689E+00
-184.4000E-03,+2.0389840E+00
-184.0000E-03,+2.0427528E+00
-183.6000E-03,+2.0467729E+00
-183.2000E-03,+2.0500393E+00
-182.8000E-03,+2.0540594E+00
-182.4000E-03,+2.0575769E+00
-182.0000E-03,+2.0603408E+00
-181.6000E-03,+2.0641096E+00
-181.2000E-03,+2.0666222E+00
-180.8000E-03,+2.0698885E+00
-180.4000E-03,+2.0724011E+00
-180.0000E-03,+2.0741599E+00
-179.6000E-03,+2.0769237E+00
-179.2000E-03,+2.0791850E+00
-178.8000E-03,+2.0804413E+00
-178.4000E-03,+2.0827026E+00
-178.0000E-03,+2.0829538E+00
-177.6000E-03,+2.0844614E+00
-177.2000E-03,+2.0854664E+00
-176.8000E-03,+2.0867227E+00
-176.4000E-03,+2.0879790E+00
-176.0000E-03,+2.0879790E+00
-175.6000E-03,+2.0879790E+00
-175.2000E-03,+2.0892352E+00
-174.8000E-03,+2.0892352E+00
-174.4000E-03,+2.0892352E+00
-174.0000E-03,+2.0892352E+00
-173.6000E-03,+2.0892352E+00
-173.2000E-03,+2.0892352E+00
-172.8000E-03,+2.0887327E+00
-172.4000E-03,+2.0889840E+00
-172.0000E-03,+2.0867227E+00
-171.6000E-03,+2.0864714E+00
-171.2000E-03,+2.0849639E+00
-170.8000E-03,+2.0842101E+00
-170.4000E-03,+2.0829538E+00
-170.0000E-03,+2.0816975E+00
-169.6000E-03,+2.0789337E+00
-169.2000E-03,+2.0779287E+00
-168.8000E-03,+2.0759186E+00
-168.4000E-03,+2.0731548E+00
-168.0000E-03,+2.0703910E+00
-167.6000E-03,+2.0676272E+00
-167.2000E-03,+2.0648634E+00
-166.8000E-03,+2.0620996E+00
-166.4000E-03,+2.0593357E+00
-166.0000E-03,+2.0565719E+00
-165.6000E-03,+2.0528031E+00
-165.2000E-03,+2.0485317E+00
-164.8000E-03,+2.0457679E+00
-164.4000E-03,+2.0417478E+00
-164.0000E-03,+2.0389840E+00
-163.6000E-03,+2.0337076E+00
-163.2000E-03,+2.0284312E+00
-162.8000E-03,+2.0249136E+00
-162.4000E-03,+2.0206423E+00
-162.0000E-03,+2.0163709E+00
-161.6000E-03,+2.0123508E+00
-161.2000E-03,+2.0070744E+00
-160.8000E-03,+2.0025518E+00
-160.4000E-03,+1.9990342E+00
-160.0000E-03,+1.9950141E+00
-159.6000E-03,+1.9907428E+00
-159.2000E-03,+1.9857176E+00
-158.8000E-03,+1.9816975E+00
-158.4000E-03,+1.9776774E+00
-158.0000E-03,+1.9724011E+00
-157.6000E-03,+1.9683810E+00
-157.2000E-03,+1.9643609E+00
-156.8000E-03,+1.9603408E+00
-156.4000E-03,+1.9563207E+00
-156.0000E-03,+1.9510443E+00
-155.6000E-03,+1.9470242E+00
-155.2000E-03,+1.9430041E+00
-154.8000E-03,+1.9389840E+00
-154.4000E-03,+1.9347126E+00
-154.0000E-03,+1.9309438E+00
-153.6000E-03,+1.9254161E+00
-153.2000E-03,+1.9208935E+00
-152.8000E-03,+1.9168734E+00
-152.4000E-03,+1.9100895E+00
-152.0000E-03,+1.9070744E+00
-151.6000E-03,+1.9030543E+00
-151.2000E-03,+1.8995367E+00
-150.8000E-03,+1.8950141E+00
-150.4000E-03,+1.8909940E+00
-150.0000E-03,+1.8857176E+00
-149.6000E-03,+1.8816975E+00
-149.2000E-03,+1.8781800E+00
-148.8000E-03,+1.8736573E+00
-148.4000E-03,+1.8683810E+00
-148.0000E-03,+1.8656171E+00
-147.6000E-03,+1.8615970E+00
-147.2000E-03,+1.8563207E+00
-146.8000E-03,+1.8523006E+00
-146.4000E-03,+1.8472754E+00
-146.0000E-03,+1.8430041E+00
-145.6000E-03,+1.8389840E+00
-145.2000E-03,+1.8357176E+00
-144.8000E-03,+1.8296875E+00
-144.4000E-03,+1.8254161E+00
-144.0000E-03,+1.8203910E+00
-143.6000E-03,+1.8163709E+00
-143.2000E-03,+1.8123508E+00
-142.8000E-03,+1.8070744E+00
-142.4000E-03,+1.8028031E+00
-142.0000E-03,+1.7990342E+00
-141.6000E-03,+1.7960192E+00
-141.2000E-03,+1.7917478E+00
-140.8000E-03,+1.7862202E+00
-140.4000E-03,+1.7829538E+00
-140.0000E-03,+1.7789337E+00
-139.6000E-03,+1.7746624E+00
-139.2000E-03,+1.7696372E+00
-138.8000E-03,+1.7656171E+00
-138.4000E-03,+1.7605920E+00
-138.0000E-03,+1.7563207E+00
-137.6000E-03,+1.7520493E+00
-137.2000E-03,+1.7482805E+00
-136.8000E-03,+1.7430041E+00
-136.4000E-03,+1.7402403E+00
-136.0000E-03,+1.7349639E+00
-135.6000E-03,+1.7309438E+00
-135.2000E-03,+1.7264212E+00
-134.8000E-03,+1.7216473E+00
-134.4000E-03,+1.7178785E+00
-134.0000E-03,+1.7136071E+00
-133.6000E-03,+1.7083307E+00
-133.2000E-03,+1.7055669E+00
-132.8000E-03,+1.7002905E+00
-132.4000E-03,+1.6962704E+00
-132.0000E-03,+1.6922503E+00
-131.6000E-03,+1.6857176E+00
-131.2000E-03,+1.6829538E+00
-130.8000E-03,+1.6789337E+00
-130.4000E-03,+1.6749136E+00
-130.0000E-03,+1.6708935E+00
-129.6000E-03,+1.6653659E+00
-129.2000E-03,+1.6615970E+00
-128.8000E-03,+1.6568232E+00
-128.4000E-03,+1.6535568E+00
-128.0000E-03,+1.6482805E+00
-127.6000E-03,+1.6432553E+00
-127.2000E-03,+1.6402403E+00
-126.8000E-03,+1.6362202E+00
-126.4000E-03,+1.6309438E+00
-126.0000E-03,+1.6269237E+00
-125.6000E-03,+1.6229036E+00
-125.2000E-03,+1.6188835E+00
-124.8000E-03,+1.6148634E+00
-124.4000E-03,+1.6118483E+00
-124.0000E-03,+1.6068232E+00
-123.6000E-03,+1.6028031E+00
-123.2000E-03,+1.5992855E+00
-122.8000E-03,+1.5960192E+00
-122.4000E-03,+1.5930041E+00
-122.0000E-03,+1.5904915E+00
-121.6000E-03,+1.5864714E+00
-121.2000E-03,+1.5829538E+00
-120.8000E-03,+1.5796875E+00
-120.4000E-03,+1.5771749E+00
-120.0000E-03,+1.5754161E+00
-119.6000E-03,+1.5716473E+00
-119.2000E-03,+1.5681297E+00
-118.8000E-03,+1.5653659E+00
-118.4000E-03,+1.5641096E+00
-118.0000E-03,+1.5615970E+00
-117.6000E-03,+1.5588332E+00
-117.2000E-03,+1.5565719E+00
-116.8000E-03,+1.5538081E+00
-116.4000E-03,+1.5517981E+00
-116.0000E-03,+1.5490342E+00
-115.6000E-03,+1.5475267E+00
-115.2000E-03,+1.5447629E+00
-114.8000E-03,+1.5419991E+00
-114.4000E-03,+1.5414965E+00
-114.0000E-03,+1.5402403E+00
-113.6000E-03,+1.5374764E+00
-113.2000E-03,+1.5359689E+00
-112.8000E-03,+1.5344614E+00
-112.4000E-03,+1.5329538E+00
-112.0000E-03,+1.5314463E+00
-111.6000E-03,+1.5301900E+00
-111.2000E-03,+1.5289337E+00
-110.8000E-03,+1.5271749E+00
-110.4000E-03,+1.5254161E+00
-110.0000E-03,+1.5239086E+00
-109.6000E-03,+1.5236573E+00
-109.2000E-03,+1.5226523E+00
-108.8000E-03,+1.5221498E+00
-108.4000E-03,+1.5203910E+00
-108.0000E-03,+1.5213960E+00
-107.6000E-03,+1.5201398E+00
-107.2000E-03,+1.5201398E+00
-106.8000E-03,+1.5201398E+00
-106.4000E-03,+1.5188835E+00
-106.0000E-03,+1.5188835E+00
-105.6000E-03,+1.5176272E+00
-105.2000E-03,+1.5183810E+00
-104.8000E-03,+1.5183810E+00
-104.4000E-03,+1.5176272E+00
-104.0000E-03,+1.5176272E+00
-103.6000E-03,+1.5186322E+00
-103.2000E-03,+1.5176272E+00
-102.8000E-03,+1.5176272E+00
-102.4000E-03,+1.5176272E+00
-102.0000E-03,+1.5176272E+00
-101.6000E-03,+1.5176272E+00
-101.2000E-03,+1.5171247E+00
-100.8000E-03,+1.5163709E+00
-100.4000E-03,+1.5163709E+00
-100.0000E-03,+1.5163709E+00
-99.6000E-03,+1.5176272E+00
-99.2000E-03,+1.5176272E+00
-98.8000E-03,+1.5163709E+00
-98.4000E-03,+1.5163709E+00
-98.0000E-03,+1.5163709E+00
-97.6000E-03,+1.5163709E+00
-97.2000E-03,+1.5163709E+00
-96.8000E-03,+1.5163709E+00
-96.4000E-03,+1.5163709E+00
-96.0000E-03,+1.5176272E+00
-95.6000E-03,+1.5163709E+00
-95.2000E-03,+1.5163709E+00
-94.8000E-03,+1.5163709E+00
-94.4000E-03,+1.5151146E+00
-94.0000E-03,+1.5151146E+00
-93.6000E-03,+1.5151146E+00
-93.2000E-03,+1.5156171E+00
-92.8000E-03,+1.5156171E+00
-92.4000E-03,+1.5151146E+00
-92.0000E-03,+1.5151146E+00
-91.6000E-03,+1.5151146E+00
-91.2000E-03,+1.5151146E+00
-90.8000E-03,+1.5151146E+00
-90.4000E-03,+1.5151146E+00
-90.0000E-03,+1.5138584E+00
-89.6000E-03,+1.5138584E+00
-89.2000E-03,+1.5151146E+00
-88.8000E-03,+1.5151146E+00
-88.4000E-03,+1.5151146E+00
-88.0000E-03,+1.5151146E+00
-87.6000E-03,+1.5148634E+00
-87.2000E-03,+1.5146121E+00
-86.8000E-03,+1.5143609E+00
-86.4000E-03,+1.5148634E+00
-86.0000E-03,+1.5138584E+00
-85.6000E-03,+1.5138584E+00
-85.2000E-03,+1.5138584E+00
-84.8000E-03,+1.5151146E+00
-84.4000E-03,+1.5138584E+00
-84.0000E-03,+1.5138584E+00
-83.6000E-03,+1.5136071E+00
-83.2000E-03,+1.5138584E+00
-82.8000E-03,+1.5131046E+00
-82.4000E-03,+1.5128533E+00
-82.0000E-03,+1.5126021E+00
-81.6000E-03,+1.5126021E+00
-81.2000E-03,+1.5133558E+00
-80.8000E-03,+1.5133558E+00
-80.4000E-03,+1.5126021E+00
-80.0000E-03,+1.5126021E+00
-79.6000E-03,+1.5126021E+00
-79.2000E-03,+1.5126021E+00
-78.8000E-03,+1.5126021E+00
-78.4000E-03,+1.5126021E+00
-78.0000E-03,+1.5113458E+00
-77.6000E-03,+1.5126021E+00
-77.2000E-03,+1.5113458E+00
-76.8000E-03,+1.5113458E+00
-76.4000E-03,+1.5123508E+00
-76.0000E-03,+1.5113458E+00
-75.6000E-03,+1.5115970E+00
-75.2000E-03,+1.5120996E+00
-74.8000E-03,+1.5113458E+00
-74.4000E-03,+1.5113458E+00
-74.0000E-03,+1.5113458E+00
-73.6000E-03,+1.5113458E+00
-73.2000E-03,+1.5105920E+00
-72.8000E-03,+1.5113458E+00
-72.4000E-03,+1.5103408E+00
-72.0000E-03,+1.5113458E+00
-71.6000E-03,+1.5113458E+00
-71.2000E-03,+1.5100895E+00
-70.8000E-03,+1.5100895E+00
-70.4000E-03,+1.5100895E+00
-70.0000E-03,+1.5113458E+00
-69.6000E-03,+1.5098383E+00
-69.2000E-03,+1.5093357E+00
-68.8000E-03,+1.5095870E+00
-68.4000E-03,+1.5088332E+00
-68.0000E-03,+1.5088332E+00
-67.6000E-03,+1.5090845E+00
-67.2000E-03,+1.5095870E+00
-66.8000E-03,+1.5088332E+00
-66.4000E-03,+1.5088332E+00
-66.0000E-03,+1.5088332E+00
-65.6000E-03,+1.5090845E+00
-65.2000E-03,+1.5088332E+00
-64.8000E-03,+1.5088332E+00
-64.4000E-03,+1.5088332E+00
-64.0000E-03,+1.5075769E+00
-63.6000E-03,+1.5088332E+00
-63.2000E-03,+1.5083307E+00
-62.8000E-03,+1.5075769E+00
-62.4000E-03,+1.5075769E+00
-62.0000E-03,+1.5075769E+00
-61.6000E-03,+1.5075769E+00
-61.2000E-03,+1.5083307E+00
-60.8000E-03,+1.5083307E+00
-60.4000E-03,+1.5075769E+00
-60.0000E-03,+1.5075769E+00
-59.6000E-03,+1.5075769E+00
-59.2000E-03,+1.5063207E+00
-58.8000E-03,+1.5063207E+00
-58.4000E-03,+1.5063207E+00
-58.0000E-03,+1.5063207E+00
-57.6000E-03,+1.5073257E+00
-57.2000E-03,+1.5063207E+00
-56.8000E-03,+1.5075769E+00
-56.4000E-03,+1.5065719E+00
-56.0000E-03,+1.5075769E+00
-55.6000E-03,+1.5075769E+00
-55.2000E-03,+1.5063207E+00
-54.8000E-03,+1.5063207E+00
-54.4000E-03,+1.5053156E+00
-54.0000E-03,+1.5063207E+00
-53.6000E-03,+1.5048131E+00
-53.2000E-03,+1.5050644E+00
-52.8000E-03,+1.5038081E+00
-52.4000E-03,+1.5025518E+00
-52.0000E-03,+1.5012955E+00
-51.6000E-03,+1.5012955E+00
-51.2000E-03,+1.5000393E+00
-50.8000E-03,+1.4980292E+00
-50.4000E-03,+1.4962704E+00
-50.0000E-03,+1.4925016E+00
-49.6000E-03,+1.4909940E+00
-49.2000E-03,+1.4882302E+00
-48.8000E-03,+1.4842101E+00
-48.4000E-03,+1.4814463E+00
-48.0000E-03,+1.4786825E+00
-47.6000E-03,+1.4746624E+00
-47.2000E-03,+1.4706423E+00
-46.8000E-03,+1.4666222E+00
-46.4000E-03,+1.4626021E+00
-46.0000E-03,+1.4573257E+00
-45.6000E-03,+1.4533056E+00
-45.2000E-03,+1.4487830E+00
-44.8000E-03,+1.4427528E+00
-44.4000E-03,+1.4377277E+00
-44.0000E-03,+1.4322001E+00
-43.6000E-03,+1.4266724E+00
-43.2000E-03,+1.4211448E+00
-42.8000E-03,+1.4156171E+00
-42.4000E-03,+1.4088332E+00
-42.0000E-03,+1.4020493E+00
-41.6000E-03,+1.3952654E+00
-41.2000E-03,+1.3872252E+00
-40.8000E-03,+1.3804413E+00
-40.4000E-03,+1.3736574E+00
-40.0000E-03,+1.3643609E+00
-39.6000E-03,+1.3575769E+00
-39.2000E-03,+1.3477780E+00
-38.8000E-03,+1.3389840E+00
-38.4000E-03,+1.3319488E+00
-38.0000E-03,+1.3216473E+00
-37.6000E-03,+1.3133558E+00
-37.2000E-03,+1.3030543E+00
-36.8000E-03,+1.2942604E+00
-36.4000E-03,+1.2847126E+00
-36.0000E-03,+1.2764212E+00
-35.6000E-03,+1.2643609E+00
-35.2000E-03,+1.2565719E+00
-34.8000E-03,+1.2472754E+00
-34.4000E-03,+1.2389840E+00
-34.0000E-03,+1.2311950E+00
-33.6000E-03,+1.2231548E+00
-33.2000E-03,+1.2163709E+00
-32.8000E-03,+1.2108433E+00
-32.4000E-03,+1.2050644E+00
-32.0000E-03,+1.1985317E+00
-31.6000E-03,+1.1935066E+00
-31.2000E-03,+1.1892352E+00
-30.8000E-03,+1.1864714E+00
-30.4000E-03,+1.1834563E+00
-30.0000E-03,+1.1809438E+00
-29.6000E-03,+1.1806925E+00
-29.2000E-03,+1.1784312E+00
-28.8000E-03,+1.1791850E+00
-28.4000E-03,+1.1796875E+00
-28.0000E-03,+1.1809438E+00
-27.6000E-03,+1.1824513E+00
-27.2000E-03,+1.1857177E+00
-26.8000E-03,+1.1892352E+00
-26.4000E-03,+1.1932553E+00
-26.0000E-03,+1.1985317E+00
-25.6000E-03,+1.2038081E+00
-25.2000E-03,+1.2090845E+00
-24.8000E-03,+1.2151146E+00
-24.4000E-03,+1.2229036E+00
-24.0000E-03,+1.2311950E+00
-23.6000E-03,+1.2392352E+00
-23.2000E-03,+1.2490342E+00
-22.8000E-03,+1.2578282E+00
-22.4000E-03,+1.2693860E+00
-22.0000E-03,+1.2801900E+00
-21.6000E-03,+1.2925016E+00
-21.2000E-03,+1.3048131E+00
-20.8000E-03,+1.3188835E+00
-20.4000E-03,+1.3319488E+00
-20.0000E-03,+1.3467729E+00
-19.6000E-03,+1.3615970E+00
-19.2000E-03,+1.3776775E+00
-18.8000E-03,+1.3937579E+00
-18.4000E-03,+1.4110945E+00
-18.0000E-03,+1.4284312E+00
-17.6000E-03,+1.4460192E+00
-17.2000E-03,+1.4656171E+00
-16.8000E-03,+1.4837076E+00
-16.4000E-03,+1.5038081E+00
-16.0000E-03,+1.5251649E+00
-15.6000E-03,+1.5480292E+00
-15.2000E-03,+1.5701398E+00
-14.8000E-03,+1.5925016E+00
-14.4000E-03,+1.6163709E+00
-14.0000E-03,+1.6407428E+00
-13.6000E-03,+1.6651146E+00
-13.2000E-03,+1.6907428E+00
-12.8000E-03,+1.7156171E+00
-12.4000E-03,+1.7397377E+00
-12.0000E-03,+1.7638584E+00
-11.6000E-03,+1.7872252E+00
-11.2000E-03,+1.8126021E+00
-10.8000E-03,+1.8374764E+00
-10.4000E-03,+1.8615970E+00
-10.0000E-03,+1.8857176E+00
-9.6000E-03,+1.9090845E+00
-9.2000E-03,+1.9359689E+00
-8.8000E-03,+1.9593357E+00
-8.4000E-03,+1.9847126E+00
-8.0000E-03,+2.0088332E+00
-7.6000E-03,+2.0342101E+00
-7.2000E-03,+2.0583307E+00
-6.8000E-03,+2.0834563E+00
-6.4000E-03,+2.1068232E+00
-6.0000E-03,+2.1319488E+00
-5.6000E-03,+2.1573257E+00
-5.2000E-03,+2.1822001E+00
-4.8000E-03,+2.2068232E+00
-4.4000E-03,+2.2309438E+00
-4.0000E-03,+2.2550644E+00
-3.6000E-03,+2.2801900E+00
-3.2000E-03,+2.3050644E+00
-2.8000E-03,+2.3306925E+00
-2.4000E-03,+2.3550644E+00
-2.0000E-03,+2.3781800E+00
-1.6000E-03,+2.4023006E+00
-1.2000E-03,+2.4271749E+00
-800.0E-06,+2.4505418E+00
-400.0E-06,+2.4744111E+00
-0.0E+00,+2.5000392E+00
+400.0E-06,+2.5239086E+00
+800.0E-06,+2.5470242E+00
+1.2000E-03,+2.5731548E+00
+1.6000E-03,+2.5965217E+00
+2.0000E-03,+2.6206423E+00
+2.4000E-03,+2.6447629E+00
+2.8000E-03,+2.6701397E+00
+3.2000E-03,+2.6942604E+00
+3.6000E-03,+2.7193860E+00
+4.0000E-03,+2.7425016E+00
+4.4000E-03,+2.7678784E+00
+4.8000E-03,+2.7889840E+00
+5.2000E-03,+2.8110945E+00
+5.6000E-03,+2.8316975E+00
+6.0000E-03,+2.8505418E+00
+6.4000E-03,+2.8688835E+00
+6.8000E-03,+2.8852151E+00
+7.2000E-03,+2.9005418E+00
+7.6000E-03,+2.9161196E+00
+8.0000E-03,+2.9284312E+00
+8.4000E-03,+2.9417478E+00
+8.8000E-03,+2.9538081E+00
+9.2000E-03,+2.9651146E+00
+9.6000E-03,+2.9744111E+00
+10.0000E-03,+2.9824513E+00
+10.4000E-03,+2.9892352E+00
+10.8000E-03,+2.9955166E+00
+11.2000E-03,+3.0002905E+00
+11.6000E-03,+3.0048131E+00
+12.0000E-03,+3.0075769E+00
+12.4000E-03,+3.0090845E+00
+12.8000E-03,+3.0100895E+00
+13.2000E-03,+3.0093357E+00
+13.6000E-03,+3.0088332E+00
+14.0000E-03,+3.0050644E+00
+14.4000E-03,+3.0033056E+00
+14.8000E-03,+2.9972754E+00
+15.2000E-03,+2.9909940E+00
+15.6000E-03,+2.9852151E+00
+16.0000E-03,+2.9774262E+00
+16.4000E-03,+2.9681297E+00
+16.8000E-03,+2.9590845E+00
+17.2000E-03,+2.9462704E+00
+17.6000E-03,+2.9342101E+00
+18.0000E-03,+2.9221498E+00
+18.4000E-03,+2.9063207E+00
+18.8000E-03,+2.8919990E+00
+19.2000E-03,+2.8756674E+00
+19.6000E-03,+2.8580794E+00
+20.0000E-03,+2.8392352E+00
+20.4000E-03,+2.8191347E+00
+20.8000E-03,+2.7985317E+00
+21.2000E-03,+2.7769237E+00
+21.6000E-03,+2.7530543E+00
+22.0000E-03,+2.7299387E+00
+22.4000E-03,+2.7043106E+00
+22.8000E-03,+2.6781799E+00
+23.2000E-03,+2.6505418E+00
+23.6000E-03,+2.6221498E+00
+24.0000E-03,+2.5917478E+00
+24.4000E-03,+2.5620995E+00
+24.8000E-03,+2.5299387E+00
+25.2000E-03,+2.4985317E+00
+25.6000E-03,+2.4643609E+00
+26.0000E-03,+2.4296875E+00
+26.4000E-03,+2.3970242E+00
+26.8000E-03,+2.3610945E+00
+27.2000E-03,+2.3269237E+00
+27.6000E-03,+2.2899890E+00
+28.0000E-03,+2.2563207E+00
+28.4000E-03,+2.2213960E+00
+28.8000E-03,+2.1864714E+00
+29.2000E-03,+2.1502905E+00
+29.6000E-03,+2.1153659E+00
+30.0000E-03,+2.0804413E+00
+30.4000E-03,+2.0455166E+00
+30.8000E-03,+2.0093357E+00
+31.2000E-03,+1.9744111E+00
+31.6000E-03,+1.9394865E+00
+32.0000E-03,+1.9033056E+00
+32.4000E-03,+1.8686322E+00
+32.8000E-03,+1.8339589E+00
+33.2000E-03,+1.7980292E+00
+33.6000E-03,+1.7623508E+00
+34.0000E-03,+1.7286825E+00
+34.4000E-03,+1.6937578E+00
+34.8000E-03,+1.6580795E+00
+35.2000E-03,+1.6234061E+00
+35.6000E-03,+1.5877277E+00
+36.0000E-03,+1.5553156E+00
+36.4000E-03,+1.5203910E+00
+36.8000E-03,+1.4854664E+00
+37.2000E-03,+1.4505418E+00
+37.6000E-03,+1.4166222E+00
+38.0000E-03,+1.3819488E+00
+38.4000E-03,+1.3467729E+00
+38.8000E-03,+1.3108433E+00
+39.2000E-03,+1.2759187E+00
+39.6000E-03,+1.2409940E+00
+40.0000E-03,+1.2048131E+00
+40.4000E-03,+1.1698885E+00
+40.8000E-03,+1.1362202E+00
+41.2000E-03,+1.1020493E+00
+41.6000E-03,+1.0661197E+00
+42.0000E-03,+1.0301900E+00
+42.4000E-03,+994.2604E-03
+42.8000E-03,+961.3458E-03
+43.2000E-03,+925.4161E-03
+43.6000E-03,+890.2403E-03
+44.0000E-03,+855.5669E-03
+44.4000E-03,+820.6423E-03
+44.8000E-03,+788.7327E-03
+45.2000E-03,+757.8282E-03
+45.6000E-03,+725.6674E-03
+46.0000E-03,+697.2754E-03
+46.4000E-03,+670.3910E-03
+46.8000E-03,+644.0091E-03
+47.2000E-03,+619.1347E-03
+47.6000E-03,+596.7729E-03
+48.0000E-03,+572.9036E-03
+48.4000E-03,+551.7981E-03
+48.8000E-03,+533.2051E-03
+49.2000E-03,+514.6121E-03
+49.6000E-03,+497.5267E-03
+50.0000E-03,+482.4513E-03
+50.4000E-03,+467.8785E-03
+50.8000E-03,+454.5619E-03
+51.2000E-03,+443.7579E-03
+51.6000E-03,+432.9538E-03
+52.0000E-03,+424.6624E-03
+52.4000E-03,+415.3659E-03
+52.8000E-03,+408.5820E-03
+53.2000E-03,+401.7981E-03
+53.6000E-03,+397.2755E-03
+54.0000E-03,+394.5116E-03
+54.4000E-03,+393.2554E-03
+54.8000E-03,+391.9991E-03
+55.2000E-03,+391.9991E-03
+55.6000E-03,+394.2604E-03
+56.0000E-03,+397.0242E-03
+56.4000E-03,+402.3006E-03
+56.8000E-03,+408.0795E-03
+57.2000E-03,+414.8634E-03
+57.6000E-03,+423.9086E-03
+58.0000E-03,+433.4564E-03
+58.4000E-03,+443.0041E-03
+58.8000E-03,+455.0644E-03
+59.2000E-03,+469.1347E-03
+59.6000E-03,+481.4463E-03
+60.0000E-03,+497.5267E-03
+60.4000E-03,+514.8634E-03
+60.8000E-03,+533.4564E-03
+61.2000E-03,+553.3056E-03
+61.6000E-03,+574.1599E-03
+62.0000E-03,+596.7729E-03
+62.4000E-03,+619.8885E-03
+62.8000E-03,+643.0041E-03
+63.2000E-03,+667.3760E-03
+63.6000E-03,+691.9991E-03
+64.0000E-03,+718.6322E-03
+64.4000E-03,+745.7679E-03
+64.8000E-03,+773.6574E-03
+65.2000E-03,+800.5418E-03
+65.6000E-03,+828.6825E-03
+66.0000E-03,+858.0795E-03
+66.4000E-03,+887.4765E-03
+66.8000E-03,+914.3609E-03
+67.2000E-03,+942.5016E-03
+67.6000E-03,+968.1297E-03
+68.0000E-03,+995.0141E-03
+68.4000E-03,+1.0203910E+00
+68.8000E-03,+1.0445116E+00
+69.2000E-03,+1.0686322E+00
+69.6000E-03,+1.0927528E+00
+70.0000E-03,+1.1156172E+00
+70.4000E-03,+1.1369739E+00
+70.8000E-03,+1.1583307E+00
+71.2000E-03,+1.1784312E+00
+71.6000E-03,+1.1987830E+00
+72.0000E-03,+1.2173759E+00
+72.4000E-03,+1.2374764E+00
+72.8000E-03,+1.2570744E+00
+73.2000E-03,+1.2756674E+00
+73.6000E-03,+1.2914965E+00
+74.0000E-03,+1.3065719E+00
+74.4000E-03,+1.3226523E+00
+74.8000E-03,+1.3382302E+00
+75.2000E-03,+1.3528031E+00
+75.6000E-03,+1.3671247E+00
+76.0000E-03,+1.3794362E+00
+76.4000E-03,+1.3927528E+00
+76.8000E-03,+1.4040594E+00
+77.2000E-03,+1.4161197E+00
+77.6000E-03,+1.4264212E+00
+78.0000E-03,+1.4359689E+00
+78.4000E-03,+1.4440091E+00
+78.8000E-03,+1.4533056E+00
+79.2000E-03,+1.4605920E+00
+79.6000E-03,+1.4681297E+00
+80.0000E-03,+1.4749136E+00
+80.4000E-03,+1.4804413E+00
+80.8000E-03,+1.4867227E+00
+81.2000E-03,+1.4907428E+00
+81.6000E-03,+1.4960192E+00
+82.0000E-03,+1.4987830E+00
+82.4000E-03,+1.5015468E+00
+82.8000E-03,+1.5030543E+00
+83.2000E-03,+1.5050644E+00
+83.6000E-03,+1.5050644E+00
+84.0000E-03,+1.5063207E+00
+84.4000E-03,+1.5053156E+00
+84.8000E-03,+1.5063207E+00
+85.2000E-03,+1.5063207E+00
+85.6000E-03,+1.5053156E+00
+86.0000E-03,+1.5050644E+00
+86.4000E-03,+1.5063207E+00
+86.8000E-03,+1.5063207E+00
+87.2000E-03,+1.5063207E+00
+87.6000E-03,+1.5063207E+00
+88.0000E-03,+1.5075769E+00
+88.4000E-03,+1.5065719E+00
+88.8000E-03,+1.5068232E+00
+89.2000E-03,+1.5075769E+00
+89.6000E-03,+1.5075769E+00
+90.0000E-03,+1.5075769E+00
+90.4000E-03,+1.5073257E+00
+90.8000E-03,+1.5068232E+00
+91.2000E-03,+1.5083307E+00
+91.6000E-03,+1.5075769E+00
+92.0000E-03,+1.5088332E+00
+92.4000E-03,+1.5075769E+00
+92.8000E-03,+1.5080795E+00
+93.2000E-03,+1.5075769E+00
+93.6000E-03,+1.5088332E+00
+94.0000E-03,+1.5088332E+00
+94.4000E-03,+1.5088332E+00
+94.8000E-03,+1.5080795E+00
+95.2000E-03,+1.5088332E+00
+95.6000E-03,+1.5088332E+00
+96.0000E-03,+1.5088332E+00
+96.4000E-03,+1.5088332E+00
+96.8000E-03,+1.5088332E+00
+97.2000E-03,+1.5088332E+00
+97.6000E-03,+1.5088332E+00
+98.0000E-03,+1.5088332E+00
+98.4000E-03,+1.5100895E+00
+98.8000E-03,+1.5095870E+00
+99.2000E-03,+1.5088332E+00
+99.6000E-03,+1.5100895E+00
+100.0000E-03,+1.5088332E+00
+100.4000E-03,+1.5100895E+00
+100.8000E-03,+1.5100895E+00
+101.2000E-03,+1.5093357E+00
+101.6000E-03,+1.5090845E+00
+102.0000E-03,+1.5113458E+00
+102.4000E-03,+1.5100895E+00
+102.8000E-03,+1.5100895E+00
+103.2000E-03,+1.5100895E+00
+103.6000E-03,+1.5100895E+00
+104.0000E-03,+1.5113458E+00
+104.4000E-03,+1.5103408E+00
+104.8000E-03,+1.5105920E+00
+105.2000E-03,+1.5105920E+00
+105.6000E-03,+1.5110945E+00
+106.0000E-03,+1.5113458E+00
+106.4000E-03,+1.5110945E+00
+106.8000E-03,+1.5113458E+00
+107.2000E-03,+1.5113458E+00
+107.6000E-03,+1.5123508E+00
+108.0000E-03,+1.5126021E+00
+108.4000E-03,+1.5126021E+00
+108.8000E-03,+1.5126021E+00
+109.2000E-03,+1.5120996E+00
+109.6000E-03,+1.5123508E+00
+110.0000E-03,+1.5126021E+00
+110.4000E-03,+1.5126021E+00
+110.8000E-03,+1.5126021E+00
+111.2000E-03,+1.5131046E+00
+111.6000E-03,+1.5128533E+00
+112.0000E-03,+1.5126021E+00
+112.4000E-03,+1.5136071E+00
+112.8000E-03,+1.5131046E+00
+113.2000E-03,+1.5131046E+00
+113.6000E-03,+1.5136071E+00
+114.0000E-03,+1.5138584E+00
+114.4000E-03,+1.5136071E+00
+114.8000E-03,+1.5138584E+00
+115.2000E-03,+1.5131046E+00
+115.6000E-03,+1.5138584E+00
+116.0000E-03,+1.5138584E+00
+116.4000E-03,+1.5151146E+00
+116.8000E-03,+1.5138584E+00
+117.2000E-03,+1.5143609E+00
+117.6000E-03,+1.5148634E+00
+118.0000E-03,+1.5138584E+00
+118.4000E-03,+1.5151146E+00
+118.8000E-03,+1.5151146E+00
+119.2000E-03,+1.5151146E+00
+119.6000E-03,+1.5151146E+00
+120.0000E-03,+1.5151146E+00
+120.4000E-03,+1.5151146E+00
+120.8000E-03,+1.5151146E+00
+121.2000E-03,+1.5151146E+00
+121.6000E-03,+1.5153659E+00
+122.0000E-03,+1.5151146E+00
+122.4000E-03,+1.5151146E+00
+122.8000E-03,+1.5156171E+00
+123.2000E-03,+1.5158684E+00
+123.6000E-03,+1.5151146E+00
+124.0000E-03,+1.5163709E+00
+124.4000E-03,+1.5163709E+00
+124.8000E-03,+1.5163709E+00
+125.2000E-03,+1.5163709E+00
+125.6000E-03,+1.5163709E+00
+126.0000E-03,+1.5163709E+00
+126.4000E-03,+1.5153659E+00
+126.8000E-03,+1.5163709E+00
+127.2000E-03,+1.5163709E+00
+127.6000E-03,+1.5163709E+00
+128.0000E-03,+1.5163709E+00
+128.4000E-03,+1.5163709E+00
+128.8000E-03,+1.5163709E+00
+129.2000E-03,+1.5171247E+00
+129.6000E-03,+1.5176272E+00
+130.0000E-03,+1.5176272E+00
+130.4000E-03,+1.5163709E+00
+130.8000E-03,+1.5176272E+00
+131.2000E-03,+1.5176272E+00
+131.6000E-03,+1.5166222E+00
+132.0000E-03,+1.5176272E+00
+132.4000E-03,+1.5176272E+00
+132.8000E-03,+1.5176272E+00
+133.2000E-03,+1.5176272E+00
+133.6000E-03,+1.5176272E+00
+134.0000E-03,+1.5176272E+00
+134.4000E-03,+1.5186322E+00
+134.8000E-03,+1.5176272E+00
+135.2000E-03,+1.5176272E+00
+135.6000E-03,+1.5178785E+00
+136.0000E-03,+1.5188835E+00
+136.4000E-03,+1.5186322E+00
+136.8000E-03,+1.5176272E+00
+137.2000E-03,+1.5183810E+00
+137.6000E-03,+1.5188835E+00
+138.0000E-03,+1.5188835E+00
+138.4000E-03,+1.5188835E+00
+138.8000E-03,+1.5188835E+00
+139.2000E-03,+1.5183810E+00
+139.6000E-03,+1.5188835E+00
+140.0000E-03,+1.5188835E+00
+140.4000E-03,+1.5188835E+00
+140.8000E-03,+1.5188835E+00
+141.2000E-03,+1.5188835E+00
+141.6000E-03,+1.5188835E+00
+142.0000E-03,+1.5201398E+00
+142.4000E-03,+1.5188835E+00
+142.8000E-03,+1.5188835E+00
+143.2000E-03,+1.5188835E+00
+143.6000E-03,+1.5201398E+00
+144.0000E-03,+1.5201398E+00
+144.4000E-03,+1.5201398E+00
+144.8000E-03,+1.5201398E+00
+145.2000E-03,+1.5201398E+00
+145.6000E-03,+1.5201398E+00
+146.0000E-03,+1.5201398E+00
+146.4000E-03,+1.5201398E+00
+146.8000E-03,+1.5201398E+00
+147.2000E-03,+1.5201398E+00
+147.6000E-03,+1.5201398E+00
+148.0000E-03,+1.5201398E+00
+148.4000E-03,+1.5201398E+00
+148.8000E-03,+1.5201398E+00
+149.2000E-03,+1.5201398E+00
+149.6000E-03,+1.5203910E+00
+150.0000E-03,+1.5201398E+00
+150.4000E-03,+1.5203910E+00
+150.8000E-03,+1.5213960E+00
+151.2000E-03,+1.5213960E+00
+151.6000E-03,+1.5213960E+00
+152.0000E-03,+1.5226523E+00
+152.4000E-03,+1.5216473E+00
+152.8000E-03,+1.5213960E+00
+153.2000E-03,+1.5213960E+00
+153.6000E-03,+1.5213960E+00
+154.0000E-03,+1.5213960E+00
+154.4000E-03,+1.5224011E+00
+154.8000E-03,+1.5213960E+00
+155.2000E-03,+1.5226523E+00
+155.6000E-03,+1.5216473E+00
+156.0000E-03,+1.5213960E+00
+156.4000E-03,+1.5224011E+00
+156.8000E-03,+1.5226523E+00
+157.2000E-03,+1.5226523E+00
+157.6000E-03,+1.5224011E+00
+158.0000E-03,+1.5226523E+00
+158.4000E-03,+1.5226523E+00
+158.8000E-03,+1.5226523E+00
+159.2000E-03,+1.5226523E+00
+159.6000E-03,+1.5229036E+00
+160.0000E-03,+1.5226523E+00
+160.4000E-03,+1.5239086E+00
+160.8000E-03,+1.5244111E+00
+161.2000E-03,+1.5239086E+00
+161.6000E-03,+1.5229036E+00
+162.0000E-03,+1.5239086E+00
+162.4000E-03,+1.5241599E+00
+162.8000E-03,+1.5239086E+00
+163.2000E-03,+1.5244111E+00
+163.6000E-03,+1.5241599E+00
+164.0000E-03,+1.5239086E+00
+164.4000E-03,+1.5249136E+00
+164.8000E-03,+1.5251649E+00
+165.2000E-03,+1.5239086E+00
+165.6000E-03,+1.5239086E+00
+166.0000E-03,+1.5239086E+00
+166.4000E-03,+1.5239086E+00
+166.8000E-03,+1.5251649E+00
+167.2000E-03,+1.5251649E+00
+167.6000E-03,+1.5241599E+00
+168.0000E-03,+1.5251649E+00
+168.4000E-03,+1.5239086E+00
+168.8000E-03,+1.5244111E+00
+169.2000E-03,+1.5256674E+00
+169.6000E-03,+1.5251649E+00
+170.0000E-03,+1.5251649E+00
+170.4000E-03,+1.5254161E+00
+170.8000E-03,+1.5259187E+00
+171.2000E-03,+1.5264212E+00
+171.6000E-03,+1.5254161E+00
+172.0000E-03,+1.5264212E+00
+172.4000E-03,+1.5264212E+00
+172.8000E-03,+1.5264212E+00
+173.2000E-03,+1.5264212E+00
+173.6000E-03,+1.5276774E+00
+174.0000E-03,+1.5264212E+00
+174.4000E-03,+1.5264212E+00
+174.8000E-03,+1.5264212E+00
+175.2000E-03,+1.5276774E+00
+175.6000E-03,+1.5276774E+00
+176.0000E-03,+1.5276774E+00
+176.4000E-03,+1.5276774E+00
+176.8000E-03,+1.5271749E+00
+177.2000E-03,+1.5276774E+00
+177.6000E-03,+1.5266724E+00
+178.0000E-03,+1.5276774E+00
+178.4000E-03,+1.5276774E+00
+178.8000E-03,+1.5276774E+00
+179.2000E-03,+1.5276774E+00
+179.6000E-03,+1.5276774E+00
+180.0000E-03,+1.5289337E+00
+180.4000E-03,+1.5286825E+00
+180.8000E-03,+1.5276774E+00
+181.2000E-03,+1.5276774E+00
+181.6000E-03,+1.5286825E+00
+182.0000E-03,+1.5289337E+00
+182.4000E-03,+1.5289337E+00
+182.8000E-03,+1.5289337E+00
+183.2000E-03,+1.5289337E+00
+183.6000E-03,+1.5289337E+00
+184.0000E-03,+1.5289337E+00
+184.4000E-03,+1.5289337E+00
+184.8000E-03,+1.5289337E+00
+185.2000E-03,+1.5289337E+00
+185.6000E-03,+1.5299388E+00
+186.0000E-03,+1.5301900E+00
+186.4000E-03,+1.5291850E+00
+186.8000E-03,+1.5296875E+00
+187.2000E-03,+1.5289337E+00
+187.6000E-03,+1.5291850E+00
+188.0000E-03,+1.5301900E+00
+188.4000E-03,+1.5301900E+00
+188.8000E-03,+1.5301900E+00
+189.2000E-03,+1.5301900E+00
+189.6000E-03,+1.5301900E+00
+190.0000E-03,+1.5301900E+00
+190.4000E-03,+1.5304413E+00
+190.8000E-03,+1.5301900E+00
+191.2000E-03,+1.5309438E+00
+191.6000E-03,+1.5301900E+00
+192.0000E-03,+1.5301900E+00
+192.4000E-03,+1.5301900E+00
+192.8000E-03,+1.5314463E+00
+193.2000E-03,+1.5314463E+00
+193.6000E-03,+1.5314463E+00
+194.0000E-03,+1.5314463E+00
+194.4000E-03,+1.5314463E+00
+194.8000E-03,+1.5322001E+00
+195.2000E-03,+1.5306925E+00
+195.6000E-03,+1.5314463E+00
+196.0000E-03,+1.5314463E+00
+196.4000E-03,+1.5327026E+00
+196.8000E-03,+1.5322001E+00
+197.2000E-03,+1.5327026E+00
+197.6000E-03,+1.5327026E+00
+198.0000E-03,+1.5314463E+00
+198.4000E-03,+1.5327026E+00
+198.8000E-03,+1.5327026E+00
+199.2000E-03,+1.5327026E+00
+199.6000E-03,+1.5327026E+00
+200.0000E-03,+1.5339589E+00
+200.4000E-03,+1.5327026E+00
+200.8000E-03,+1.5327026E+00
+201.2000E-03,+1.5327026E+00
+201.6000E-03,+1.5324513E+00
+202.0000E-03,+1.5327026E+00
+202.4000E-03,+1.5339589E+00
+202.8000E-03,+1.5339589E+00
+203.2000E-03,+1.5339589E+00
+203.6000E-03,+1.5339589E+00
+204.0000E-03,+1.5352151E+00
+204.4000E-03,+1.5339589E+00
+204.8000E-03,+1.5344614E+00
+205.2000E-03,+1.5352151E+00
+205.6000E-03,+1.5342101E+00
+206.0000E-03,+1.5339589E+00
+206.4000E-03,+1.5342101E+00
+206.8000E-03,+1.5347126E+00
+207.2000E-03,+1.5352151E+00
+207.6000E-03,+1.5339589E+00
+208.0000E-03,+1.5339589E+00
+208.4000E-03,+1.5339589E+00
+208.8000E-03,+1.5339589E+00
+209.2000E-03,+1.5347126E+00
+209.6000E-03,+1.5352151E+00
+210.0000E-03,+1.5352151E+00
+210.4000E-03,+1.5364714E+00
+210.8000E-03,+1.5357177E+00
+211.2000E-03,+1.5364714E+00
+211.6000E-03,+1.5364714E+00
+212.0000E-03,+1.5377277E+00
+212.4000E-03,+1.5377277E+00
+212.8000E-03,+1.5382302E+00
+213.2000E-03,+1.5389840E+00
+213.6000E-03,+1.5402403E+00
+214.0000E-03,+1.5402403E+00
+214.4000E-03,+1.5404915E+00
+214.8000E-03,+1.5414965E+00
+215.2000E-03,+1.5414965E+00
+215.6000E-03,+1.5427528E+00
+216.0000E-03,+1.5440091E+00
+216.4000E-03,+1.5455166E+00
+216.8000E-03,+1.5465217E+00
+217.2000E-03,+1.5472754E+00
+217.6000E-03,+1.5465217E+00
+218.0000E-03,+1.5490342E+00
+218.4000E-03,+1.5502905E+00
+218.8000E-03,+1.5520493E+00
+219.2000E-03,+1.5528031E+00
+219.6000E-03,+1.5540594E+00
+220.0000E-03,+1.5553156E+00
+220.4000E-03,+1.5565719E+00
+220.8000E-03,+1.5570744E+00
+221.2000E-03,+1.5578282E+00
+221.6000E-03,+1.5600895E+00
+222.0000E-03,+1.5615970E+00
+222.4000E-03,+1.5628533E+00
+222.8000E-03,+1.5628533E+00
+223.2000E-03,+1.5641096E+00
+223.6000E-03,+1.5663709E+00
+224.0000E-03,+1.5678785E+00
+224.4000E-03,+1.5693860E+00
+224.8000E-03,+1.5708935E+00
+225.2000E-03,+1.5736573E+00
+225.6000E-03,+1.5766724E+00
+226.0000E-03,+1.5779287E+00
+226.4000E-03,+1.5791850E+00
+226.8000E-03,+1.5804413E+00
+227.2000E-03,+1.5816975E+00
+227.6000E-03,+1.5839589E+00
+228.0000E-03,+1.5854664E+00
+228.4000E-03,+1.5869739E+00
+228.8000E-03,+1.5897378E+00
+229.2000E-03,+1.5917478E+00
+229.6000E-03,+1.5952654E+00
+230.0000E-03,+1.5967729E+00
+230.4000E-03,+1.5992855E+00
+230.8000E-03,+1.5997880E+00
+231.2000E-03,+1.6012955E+00
+231.6000E-03,+1.6040594E+00
+232.0000E-03,+1.6068232E+00
+232.4000E-03,+1.6083307E+00
+232.8000E-03,+1.6105920E+00
+233.2000E-03,+1.6131046E+00
+233.6000E-03,+1.6153659E+00
+234.0000E-03,+1.6168734E+00
+234.4000E-03,+1.6193860E+00
+234.8000E-03,+1.6211448E+00
+235.2000E-03,+1.6226523E+00
+235.6000E-03,+1.6254161E+00
+236.0000E-03,+1.6269237E+00
+236.4000E-03,+1.6294362E+00
+236.8000E-03,+1.6324513E+00
+237.2000E-03,+1.6332051E+00
+237.6000E-03,+1.6357176E+00
+238.0000E-03,+1.6382302E+00
+238.4000E-03,+1.6397377E+00
+238.8000E-03,+1.6419991E+00
+239.2000E-03,+1.6445116E+00
+239.6000E-03,+1.6467729E+00
+240.0000E-03,+1.6482805E+00
+240.4000E-03,+1.6507930E+00
+240.8000E-03,+1.6538081E+00
+241.2000E-03,+1.6553156E+00
+241.6000E-03,+1.6570744E+00
+242.0000E-03,+1.6595870E+00
+242.4000E-03,+1.6610945E+00
+242.8000E-03,+1.6633558E+00
+243.2000E-03,+1.6648634E+00
+243.6000E-03,+1.6671247E+00
+244.0000E-03,+1.6696372E+00
+244.4000E-03,+1.6724011E+00
+244.8000E-03,+1.6751649E+00
+245.2000E-03,+1.6766724E+00
+245.6000E-03,+1.6784312E+00
+246.0000E-03,+1.6796875E+00
+246.4000E-03,+1.6822001E+00
+246.8000E-03,+1.6847126E+00
+247.2000E-03,+1.6867227E+00
+247.6000E-03,+1.6884815E+00
+248.0000E-03,+1.6909940E+00
+248.4000E-03,+1.6935066E+00
+248.8000E-03,+1.6960192E+00
+249.2000E-03,+1.6980292E+00
+249.6000E-03,+1.6997880E+00
+250.0000E-03,+1.7010443E+00
+250.4000E-03,+1.7035568E+00
+250.8000E-03,+1.7060694E+00
+251.2000E-03,+1.7080795E+00
+251.6000E-03,+1.7098383E+00
+252.0000E-03,+1.7123508E+00
+252.4000E-03,+1.7148634E+00
+252.8000E-03,+1.7173759E+00
+253.2000E-03,+1.7186322E+00
+253.6000E-03,+1.7208935E+00
+254.0000E-03,+1.7224011E+00
+254.4000E-03,+1.7239086E+00
+254.8000E-03,+1.7266724E+00
+255.2000E-03,+1.7286825E+00
+255.6000E-03,+1.7322001E+00
+256.0000E-03,+1.7349639E+00
+256.4000E-03,+1.7362202E+00
+256.8000E-03,+1.7379790E+00
+257.2000E-03,+1.7399890E+00
+257.6000E-03,+1.7412453E+00
+258.0000E-03,+1.7437578E+00
+258.4000E-03,+1.7450141E+00
+258.8000E-03,+1.7475267E+00
+259.2000E-03,+1.7495367E+00
+259.6000E-03,+1.7523006E+00
+260.0000E-03,+1.7550644E+00
+260.4000E-03,+1.7565719E+00
+260.8000E-03,+1.7593357E+00
+261.2000E-03,+1.7613458E+00
+261.6000E-03,+1.7628533E+00
+262.0000E-03,+1.7638584E+00
+262.4000E-03,+1.7663709E+00
+262.8000E-03,+1.7681297E+00
+263.2000E-03,+1.7713960E+00
+263.6000E-03,+1.7726523E+00
+264.0000E-03,+1.7764212E+00
+264.4000E-03,+1.7779287E+00
+264.8000E-03,+1.7794362E+00
+265.2000E-03,+1.7814463E+00
+265.6000E-03,+1.7837076E+00
+266.0000E-03,+1.7852151E+00
+266.4000E-03,+1.7877277E+00
+266.8000E-03,+1.7887327E+00
+267.2000E-03,+1.7914965E+00
+267.6000E-03,+1.7937578E+00
+268.0000E-03,+1.7965217E+00
+268.4000E-03,+1.7967729E+00
+268.8000E-03,+1.7982805E+00
+269.2000E-03,+1.7990342E+00
+269.6000E-03,+1.8015468E+00
+270.0000E-03,+1.8015468E+00
+270.4000E-03,+1.8028031E+00
+270.8000E-03,+1.8040594E+00
+271.2000E-03,+1.8048131E+00
+271.6000E-03,+1.8055669E+00
+272.0000E-03,+1.8065719E+00
+272.4000E-03,+1.8088332E+00
+272.8000E-03,+1.8085820E+00
+273.2000E-03,+1.8090845E+00
+273.6000E-03,+1.8100895E+00
+274.0000E-03,+1.8103408E+00
+274.4000E-03,+1.8103408E+00
+274.8000E-03,+1.8108433E+00
+275.2000E-03,+1.8108433E+00
+275.6000E-03,+1.8128533E+00
+276.0000E-03,+1.8128533E+00
+276.4000E-03,+1.8128533E+00
+276.8000E-03,+1.8128533E+00
+277.2000E-03,+1.8115970E+00
+277.6000E-03,+1.8115970E+00
+278.0000E-03,+1.8128533E+00
+278.4000E-03,+1.8115970E+00
+278.8000E-03,+1.8115970E+00
+279.2000E-03,+1.8103408E+00
+279.6000E-03,+1.8093357E+00
+280.0000E-03,+1.8090845E+00
+280.4000E-03,+1.8088332E+00
+280.8000E-03,+1.8078282E+00
+281.2000E-03,+1.8065719E+00
+281.6000E-03,+1.8065719E+00
+282.0000E-03,+1.8053156E+00
+282.4000E-03,+1.8038081E+00
+282.8000E-03,+1.8028031E+00
+283.2000E-03,+1.8015468E+00
+283.6000E-03,+1.8002905E+00
+284.0000E-03,+1.7990342E+00
+284.4000E-03,+1.7977779E+00
+284.8000E-03,+1.7965217E+00
+285.2000E-03,+1.7952654E+00
+285.6000E-03,+1.7930041E+00
+286.0000E-03,+1.7902403E+00
+286.4000E-03,+1.7889840E+00
+286.8000E-03,+1.7884815E+00
+287.2000E-03,+1.7852151E+00
+287.6000E-03,+1.7839589E+00
+288.0000E-03,+1.7814463E+00
+288.4000E-03,+1.7801900E+00
+288.8000E-03,+1.7776774E+00
+289.2000E-03,+1.7756674E+00
+289.6000E-03,+1.7741599E+00
+290.0000E-03,+1.7713960E+00
+290.4000E-03,+1.7688835E+00
+290.8000E-03,+1.7676272E+00
+291.2000E-03,+1.7656171E+00
+291.6000E-03,+1.7626021E+00
+292.0000E-03,+1.7600895E+00
+292.4000E-03,+1.7588332E+00
+292.8000E-03,+1.7563207E+00
+293.2000E-03,+1.7543106E+00
+293.6000E-03,+1.7515468E+00
+294.0000E-03,+1.7487830E+00
+294.4000E-03,+1.7472754E+00
+294.8000E-03,+1.7457679E+00
+295.2000E-03,+1.7437578E+00
+295.6000E-03,+1.7414965E+00
+296.0000E-03,+1.7399890E+00
+296.4000E-03,+1.7384815E+00
+296.8000E-03,+1.7362202E+00
+297.2000E-03,+1.7342101E+00
+297.6000E-03,+1.7324513E+00
+298.0000E-03,+1.7299388E+00
+298.4000E-03,+1.7271749E+00
+298.8000E-03,+1.7244111E+00
+299.2000E-03,+1.7224011E+00
+299.6000E-03,+1.7213960E+00
+300.0000E-03,+1.7186322E+00
+300.4000E-03,+1.7183810E+00
+300.8000E-03,+1.7156171E+00
+301.2000E-03,+1.7128533E+00
+301.6000E-03,+1.7113458E+00
+302.0000E-03,+1.7085820E+00
+302.4000E-03,+1.7060694E+00
+302.8000E-03,+1.7048131E+00
+303.2000E-03,+1.7023006E+00
+303.6000E-03,+1.7010443E+00
+304.0000E-03,+1.6985317E+00
+304.4000E-03,+1.6947629E+00
+304.8000E-03,+1.6930041E+00
+305.2000E-03,+1.6909940E+00
+305.6000E-03,+1.6884815E+00
+306.0000E-03,+1.6859689E+00
+306.4000E-03,+1.6834563E+00
+306.8000E-03,+1.6822001E+00
+307.2000E-03,+1.6801900E+00
+307.6000E-03,+1.6786825E+00
+308.0000E-03,+1.6771749E+00
+308.4000E-03,+1.6754161E+00
+308.8000E-03,+1.6729036E+00
+309.2000E-03,+1.6701398E+00
+309.6000E-03,+1.6683810E+00
+310.0000E-03,+1.6658684E+00
+310.4000E-03,+1.6633558E+00
+310.8000E-03,+1.6615970E+00
+311.2000E-03,+1.6595870E+00
+311.6000E-03,+1.6583307E+00
+312.0000E-03,+1.6558182E+00
+312.4000E-03,+1.6533056E+00
+312.8000E-03,+1.6507930E+00
+313.2000E-03,+1.6487830E+00
+313.6000E-03,+1.6470242E+00
+314.0000E-03,+1.6445116E+00
+314.4000E-03,+1.6430041E+00
+314.8000E-03,+1.6402403E+00
+315.2000E-03,+1.6394865E+00
+315.6000E-03,+1.6367227E+00
+316.0000E-03,+1.6344614E+00
+316.4000E-03,+1.6319488E+00
+316.8000E-03,+1.6294362E+00
+317.2000E-03,+1.6274262E+00
+317.6000E-03,+1.6256674E+00
+318.0000E-03,+1.6244111E+00
+318.4000E-03,+1.6216473E+00
+318.8000E-03,+1.6193860E+00
+319.2000E-03,+1.6181297E+00
+319.6000E-03,+1.6158684E+00
+320.0000E-03,+1.6143609E+00
+320.4000E-03,+1.6115970E+00
+320.8000E-03,+1.6100895E+00
+321.2000E-03,+1.6068232E+00
+321.6000E-03,+1.6045619E+00
+322.0000E-03,+1.6030543E+00
+322.4000E-03,+1.6005418E+00
+322.8000E-03,+1.5987830E+00
+323.2000E-03,+1.5960192E+00
+323.6000E-03,+1.5955166E+00
+324.0000E-03,+1.5930041E+00
+324.4000E-03,+1.5902403E+00
+324.8000E-03,+1.5874764E+00
+325.2000E-03,+1.5859689E+00
+325.6000E-03,+1.5832051E+00
+326.0000E-03,+1.5816975E+00
+326.4000E-03,+1.5804413E+00
+326.8000E-03,+1.5791850E+00
+327.2000E-03,+1.5766724E+00
+327.6000E-03,+1.5754161E+00
+328.0000E-03,+1.5741599E+00
+328.4000E-03,+1.5716473E+00
+328.8000E-03,+1.5698885E+00
+329.2000E-03,+1.5683810E+00
+329.6000E-03,+1.5666222E+00
+330.0000E-03,+1.5641096E+00
+330.4000E-03,+1.5626021E+00
+330.8000E-03,+1.5615970E+00
+331.2000E-03,+1.5595870E+00
+331.6000E-03,+1.5593357E+00
+332.0000E-03,+1.5578282E+00
+332.4000E-03,+1.5563207E+00
+332.8000E-03,+1.5553156E+00
+333.2000E-03,+1.5535568E+00
+333.6000E-03,+1.5515468E+00
+334.0000E-03,+1.5502905E+00
+334.4000E-03,+1.5500393E+00
+334.8000E-03,+1.5472754E+00
+335.2000E-03,+1.5465217E+00
+335.6000E-03,+1.5452654E+00
+336.0000E-03,+1.5440091E+00
+336.4000E-03,+1.5437579E+00
+336.8000E-03,+1.5427528E+00
+337.2000E-03,+1.5414965E+00
+337.6000E-03,+1.5404915E+00
+338.0000E-03,+1.5389840E+00
+338.4000E-03,+1.5377277E+00
+338.8000E-03,+1.5377277E+00
+339.2000E-03,+1.5369739E+00
+339.6000E-03,+1.5364714E+00
+340.0000E-03,+1.5364714E+00
+340.4000E-03,+1.5339589E+00
+340.8000E-03,+1.5339589E+00
+341.2000E-03,+1.5327026E+00
+341.6000E-03,+1.5316975E+00
+342.0000E-03,+1.5314463E+00
+342.4000E-03,+1.5301900E+00
+342.8000E-03,+1.5301900E+00
+343.2000E-03,+1.5289337E+00
+343.6000E-03,+1.5279287E+00
+344.0000E-03,+1.5264212E+00
+344.4000E-03,+1.5266724E+00
+344.8000E-03,+1.5264212E+00
+345.2000E-03,+1.5269237E+00
+345.6000E-03,+1.5251649E+00
+346.0000E-03,+1.5251649E+00
+346.4000E-03,+1.5249136E+00
+346.8000E-03,+1.5246624E+00
+347.2000E-03,+1.5239086E+00
+347.6000E-03,+1.5229036E+00
+348.0000E-03,+1.5226523E+00
+348.4000E-03,+1.5226523E+00
+348.8000E-03,+1.5218986E+00
+349.2000E-03,+1.5213960E+00
+349.6000E-03,+1.5216473E+00
+350.0000E-03,+1.5213960E+00
+350.4000E-03,+1.5201398E+00
+350.8000E-03,+1.5201398E+00
+351.2000E-03,+1.5201398E+00
+351.6000E-03,+1.5201398E+00
+352.0000E-03,+1.5201398E+00
+352.4000E-03,+1.5188835E+00
+352.8000E-03,+1.5188835E+00
+353.2000E-03,+1.5188835E+00
+353.6000E-03,+1.5178785E+00
+354.0000E-03,+1.5176272E+00
+354.4000E-03,+1.5176272E+00
+354.8000E-03,+1.5163709E+00
+355.2000E-03,+1.5176272E+00
+355.6000E-03,+1.5163709E+00
+356.0000E-03,+1.5163709E+00
+356.4000E-03,+1.5151146E+00
+356.8000E-03,+1.5151146E+00
+357.2000E-03,+1.5143609E+00
+357.6000E-03,+1.5138584E+00
+358.0000E-03,+1.5138584E+00
+358.4000E-03,+1.5151146E+00
+358.8000E-03,+1.5138584E+00
+359.2000E-03,+1.5133558E+00
+359.6000E-03,+1.5126021E+00
+360.0000E-03,+1.5126021E+00
+360.4000E-03,+1.5115970E+00
+360.8000E-03,+1.5126021E+00
+361.2000E-03,+1.5113458E+00
+361.6000E-03,+1.5110945E+00
+362.0000E-03,+1.5113458E+00
+362.4000E-03,+1.5100895E+00
+362.8000E-03,+1.5100895E+00
+363.2000E-03,+1.5088332E+00
+363.6000E-03,+1.5088332E+00
+364.0000E-03,+1.5088332E+00
+364.4000E-03,+1.5065719E+00
+364.8000E-03,+1.5083307E+00
+365.2000E-03,+1.5075769E+00
+365.6000E-03,+1.5063207E+00
+366.0000E-03,+1.5075769E+00
+366.4000E-03,+1.5085820E+00
+366.8000E-03,+1.5070744E+00
+367.2000E-03,+1.5063207E+00
+367.6000E-03,+1.5063207E+00
+368.0000E-03,+1.5063207E+00
+368.4000E-03,+1.5063207E+00
+368.8000E-03,+1.5050644E+00
+369.2000E-03,+1.5050644E+00
+369.6000E-03,+1.5053156E+00
+370.0000E-03,+1.5050644E+00
+370.4000E-03,+1.5050644E+00
+370.8000E-03,+1.5050644E+00
+371.2000E-03,+1.5050644E+00
+371.6000E-03,+1.5040594E+00
+372.0000E-03,+1.5063207E+00
+372.4000E-03,+1.5050644E+00
+372.8000E-03,+1.5043106E+00
+373.2000E-03,+1.5045619E+00
+373.6000E-03,+1.5038081E+00
+374.0000E-03,+1.5038081E+00
+374.4000E-03,+1.5050644E+00
+374.8000E-03,+1.5050644E+00
+375.2000E-03,+1.5050644E+00
+375.6000E-03,+1.5040594E+00
+376.0000E-03,+1.5038081E+00
+376.4000E-03,+1.5038081E+00
+376.8000E-03,+1.5038081E+00
+377.2000E-03,+1.5038081E+00
+377.6000E-03,+1.5038081E+00
+378.0000E-03,+1.5038081E+00
+378.4000E-03,+1.5038081E+00
+378.8000E-03,+1.5033056E+00
+379.2000E-03,+1.5030543E+00
+379.6000E-03,+1.5038081E+00
+380.0000E-03,+1.5038081E+00
+380.4000E-03,+1.5048131E+00
+380.8000E-03,+1.5043106E+00
+381.2000E-03,+1.5050644E+00
+381.6000E-03,+1.5038081E+00
+382.0000E-03,+1.5038081E+00
+382.4000E-03,+1.5038081E+00
+382.8000E-03,+1.5038081E+00
+383.2000E-03,+1.5038081E+00
+383.6000E-03,+1.5038081E+00
+384.0000E-03,+1.5038081E+00
+384.4000E-03,+1.5040594E+00
+384.8000E-03,+1.5038081E+00
+385.2000E-03,+1.5038081E+00
+385.6000E-03,+1.5038081E+00
+386.0000E-03,+1.5038081E+00
+386.4000E-03,+1.5038081E+00
+386.8000E-03,+1.5033056E+00
+387.2000E-03,+1.5043106E+00
+387.6000E-03,+1.5038081E+00
+388.0000E-03,+1.5038081E+00
+388.4000E-03,+1.5028031E+00
+388.8000E-03,+1.5033056E+00
+389.2000E-03,+1.5038081E+00
+389.6000E-03,+1.5028031E+00
+390.0000E-03,+1.5025518E+00
+390.4000E-03,+1.5038081E+00
+390.8000E-03,+1.5038081E+00
+391.2000E-03,+1.5038081E+00
+391.6000E-03,+1.5038081E+00
+392.0000E-03,+1.5038081E+00
+392.4000E-03,+1.5038081E+00
+392.8000E-03,+1.5038081E+00
+393.2000E-03,+1.5038081E+00
+393.6000E-03,+1.5038081E+00
+394.0000E-03,+1.5038081E+00
+394.4000E-03,+1.5038081E+00
+394.8000E-03,+1.5038081E+00
+395.2000E-03,+1.5038081E+00
+395.6000E-03,+1.5038081E+00
+396.0000E-03,+1.5038081E+00
+396.4000E-03,+1.5048131E+00
+396.8000E-03,+1.5038081E+00
+397.2000E-03,+1.5038081E+00
+397.6000E-03,+1.5030543E+00
+398.0000E-03,+1.5038081E+00
+398.4000E-03,+1.5025518E+00
+398.8000E-03,+1.5025518E+00
+399.2000E-03,+1.5033056E+00
+399.6000E-03,+1.5025518E+00
+400.0000E-03,+1.5038081E+00
+400.4000E-03,+1.5038081E+00
+400.8000E-03,+1.5038081E+00
+401.2000E-03,+1.5038081E+00
+401.6000E-03,+1.5038081E+00
+402.0000E-03,+1.5038081E+00
+402.4000E-03,+1.5038081E+00
+402.8000E-03,+1.5038081E+00
+403.2000E-03,+1.5038081E+00
+403.6000E-03,+1.5038081E+00
+404.0000E-03,+1.5038081E+00
+404.4000E-03,+1.5038081E+00
+404.8000E-03,+1.5038081E+00
+405.2000E-03,+1.5033056E+00
+405.6000E-03,+1.5035568E+00
+406.0000E-03,+1.5038081E+00
+406.4000E-03,+1.5028031E+00
+406.8000E-03,+1.5038081E+00
+407.2000E-03,+1.5038081E+00
+407.6000E-03,+1.5038081E+00
+408.0000E-03,+1.5038081E+00
+408.4000E-03,+1.5038081E+00
+408.8000E-03,+1.5038081E+00
+409.2000E-03,+1.5030543E+00
+409.6000E-03,+1.5028031E+00
+410.0000E-03,+1.5038081E+00
+410.4000E-03,+1.5035568E+00
+410.8000E-03,+1.5033056E+00
+411.2000E-03,+1.5038081E+00
+411.6000E-03,+1.5038081E+00
+412.0000E-03,+1.5038081E+00
+412.4000E-03,+1.5035568E+00
+412.8000E-03,+1.5033056E+00
+413.2000E-03,+1.5038081E+00
+413.6000E-03,+1.5038081E+00
+414.0000E-03,+1.5025518E+00
+414.4000E-03,+1.5038081E+00
+414.8000E-03,+1.5038081E+00
+415.2000E-03,+1.5033056E+00
+415.6000E-03,+1.5025518E+00
+416.0000E-03,+1.5025518E+00
+416.4000E-03,+1.5035568E+00
+416.8000E-03,+1.5038081E+00
+417.2000E-03,+1.5025518E+00
+417.6000E-03,+1.5035568E+00
+418.0000E-03,+1.5025518E+00
+418.4000E-03,+1.5038081E+00
+418.8000E-03,+1.5025518E+00
+419.2000E-03,+1.5030543E+00
+419.6000E-03,+1.5035568E+00
+420.0000E-03,+1.5025518E+00
+420.4000E-03,+1.5040594E+00
+420.8000E-03,+1.5038081E+00
+421.2000E-03,+1.5030543E+00
+421.6000E-03,+1.5038081E+00
+422.0000E-03,+1.5038081E+00
+422.4000E-03,+1.5038081E+00
+422.8000E-03,+1.5038081E+00
+423.2000E-03,+1.5038081E+00
+423.6000E-03,+1.5038081E+00
+424.0000E-03,+1.5038081E+00
+424.4000E-03,+1.5025518E+00
+424.8000E-03,+1.5038081E+00
+425.2000E-03,+1.5043106E+00
+425.6000E-03,+1.5038081E+00
+426.0000E-03,+1.5038081E+00
+426.4000E-03,+1.5048131E+00
+426.8000E-03,+1.5038081E+00
+427.2000E-03,+1.5038081E+00
+427.6000E-03,+1.5038081E+00
+428.0000E-03,+1.5038081E+00
+428.4000E-03,+1.5038081E+00
+428.8000E-03,+1.5038081E+00
+429.2000E-03,+1.5038081E+00
+429.6000E-03,+1.5038081E+00
+430.0000E-03,+1.5038081E+00
+430.4000E-03,+1.5035568E+00
+430.8000E-03,+1.5030543E+00
+431.2000E-03,+1.5038081E+00
+431.6000E-03,+1.5038081E+00
+432.0000E-03,+1.5025518E+00
+432.4000E-03,+1.5025518E+00
+432.8000E-03,+1.5038081E+00
+433.2000E-03,+1.5038081E+00
+433.6000E-03,+1.5028031E+00
+434.0000E-03,+1.5038081E+00
+434.4000E-03,+1.5028031E+00
+434.8000E-03,+1.5025518E+00
+435.2000E-03,+1.5033056E+00
+435.6000E-03,+1.5038081E+00
+436.0000E-03,+1.5038081E+00
+436.4000E-03,+1.5038081E+00
+436.8000E-03,+1.5038081E+00
+437.2000E-03,+1.5038081E+00
+437.6000E-03,+1.5038081E+00
+438.0000E-03,+1.5025518E+00
+438.4000E-03,+1.5028031E+00
+438.8000E-03,+1.5033056E+00
+439.2000E-03,+1.5030543E+00
+439.6000E-03,+1.5038081E+00
+440.0000E-03,+1.5038081E+00
+440.4000E-03,+1.5038081E+00
+440.8000E-03,+1.5038081E+00
+441.2000E-03,+1.5038081E+00
+441.6000E-03,+1.5038081E+00
+442.0000E-03,+1.5025518E+00
+442.4000E-03,+1.5025518E+00
+442.8000E-03,+1.5025518E+00
+443.2000E-03,+1.5025518E+00
+443.6000E-03,+1.5025518E+00
+444.0000E-03,+1.5038081E+00
+444.4000E-03,+1.5038081E+00
+444.8000E-03,+1.5033056E+00
+445.2000E-03,+1.5030543E+00
+445.6000E-03,+1.5035568E+00
+446.0000E-03,+1.5038081E+00
+446.4000E-03,+1.5038081E+00
+446.8000E-03,+1.5030543E+00
+447.2000E-03,+1.5030543E+00
+447.6000E-03,+1.5038081E+00
+448.0000E-03,+1.5038081E+00
+448.4000E-03,+1.5038081E+00
+448.8000E-03,+1.5038081E+00
+449.2000E-03,+1.5030543E+00
+449.6000E-03,+1.5025518E+00
+450.0000E-03,+1.5038081E+00
+450.4000E-03,+1.5038081E+00
+450.8000E-03,+1.5030543E+00
+451.2000E-03,+1.5030543E+00
+451.6000E-03,+1.5028031E+00
+452.0000E-03,+1.5038081E+00
+452.4000E-03,+1.5028031E+00
+452.8000E-03,+1.5020493E+00
+453.2000E-03,+1.5033056E+00
+453.6000E-03,+1.5028031E+00
+454.0000E-03,+1.5038081E+00
+454.4000E-03,+1.5028031E+00
+454.8000E-03,+1.5033056E+00
+455.2000E-03,+1.5038081E+00
+455.6000E-03,+1.5038081E+00
+456.0000E-03,+1.5038081E+00
+456.4000E-03,+1.5038081E+00
+456.8000E-03,+1.5038081E+00
+457.2000E-03,+1.5038081E+00
+457.6000E-03,+1.5035568E+00
+458.0000E-03,+1.5038081E+00
+458.4000E-03,+1.5038081E+00
+458.8000E-03,+1.5030543E+00
+459.2000E-03,+1.5038081E+00
+459.6000E-03,+1.5025518E+00
+460.0000E-03,+1.5038081E+00
+460.4000E-03,+1.5025518E+00
+460.8000E-03,+1.5025518E+00
+461.2000E-03,+1.5033056E+00
+461.6000E-03,+1.5038081E+00
+462.0000E-03,+1.5025518E+00
+462.4000E-03,+1.5028031E+00
+462.8000E-03,+1.5038081E+00
+463.2000E-03,+1.5030543E+00
+463.6000E-03,+1.5038081E+00
+464.0000E-03,+1.5025518E+00
+464.4000E-03,+1.5028031E+00
+464.8000E-03,+1.5038081E+00
+465.2000E-03,+1.5025518E+00
+465.6000E-03,+1.5035568E+00
+466.0000E-03,+1.5025518E+00
+466.4000E-03,+1.5038081E+00
+466.8000E-03,+1.5038081E+00
+467.2000E-03,+1.5038081E+00
+467.6000E-03,+1.5025518E+00
+468.0000E-03,+1.5025518E+00
+468.4000E-03,+1.5025518E+00
+468.8000E-03,+1.5038081E+00
+469.2000E-03,+1.5033056E+00
+469.6000E-03,+1.5038081E+00
+470.0000E-03,+1.5025518E+00
+470.4000E-03,+1.5025518E+00
+470.8000E-03,+1.5030543E+00
+471.2000E-03,+1.5030543E+00
+471.6000E-03,+1.5038081E+00
+472.0000E-03,+1.5025518E+00
+472.4000E-03,+1.5025518E+00
+472.8000E-03,+1.5030543E+00
+473.2000E-03,+1.5038081E+00
+473.6000E-03,+1.5038081E+00
+474.0000E-03,+1.5050644E+00
+474.4000E-03,+1.5038081E+00
+474.8000E-03,+1.5045619E+00
+475.2000E-03,+1.5038081E+00
+475.6000E-03,+1.5038081E+00
+476.0000E-03,+1.5038081E+00
+476.4000E-03,+1.5038081E+00
+476.8000E-03,+1.5038081E+00
+477.2000E-03,+1.5038081E+00
+477.6000E-03,+1.5035568E+00
+478.0000E-03,+1.5025518E+00
+478.4000E-03,+1.5038081E+00
+478.8000E-03,+1.5038081E+00
+479.2000E-03,+1.5033056E+00
+479.6000E-03,+1.5035568E+00
+480.0000E-03,+1.5025518E+00
+480.4000E-03,+1.5035568E+00
+480.8000E-03,+1.5025518E+00
+481.2000E-03,+1.5038081E+00
+481.6000E-03,+1.5038081E+00
+482.0000E-03,+1.5038081E+00
+482.4000E-03,+1.5035568E+00
+482.8000E-03,+1.5038081E+00
+483.2000E-03,+1.5038081E+00
+483.6000E-03,+1.5038081E+00
+484.0000E-03,+1.5038081E+00
+484.4000E-03,+1.5038081E+00
+484.8000E-03,+1.5038081E+00
+485.2000E-03,+1.5030543E+00
+485.6000E-03,+1.5038081E+00
+486.0000E-03,+1.5038081E+00
+486.4000E-03,+1.5038081E+00
+486.8000E-03,+1.5038081E+00
+487.2000E-03,+1.5033056E+00
+487.6000E-03,+1.5038081E+00
+488.0000E-03,+1.5050644E+00
+488.4000E-03,+1.5038081E+00
+488.8000E-03,+1.5038081E+00
+489.2000E-03,+1.5038081E+00
+489.6000E-03,+1.5038081E+00
+490.0000E-03,+1.5038081E+00
+490.4000E-03,+1.5038081E+00
+490.8000E-03,+1.5033056E+00
+491.2000E-03,+1.5038081E+00
+491.6000E-03,+1.5038081E+00
+492.0000E-03,+1.5038081E+00
+492.4000E-03,+1.5038081E+00
+492.8000E-03,+1.5038081E+00
+493.2000E-03,+1.5033056E+00
+493.6000E-03,+1.5038081E+00
+494.0000E-03,+1.5038081E+00
+494.4000E-03,+1.5038081E+00
+494.8000E-03,+1.5038081E+00
+495.2000E-03,+1.5038081E+00
+495.6000E-03,+1.5038081E+00
+496.0000E-03,+1.5050644E+00
+496.4000E-03,+1.5028031E+00
+496.8000E-03,+1.5038081E+00
+497.2000E-03,+1.5038081E+00
+497.6000E-03,+1.5038081E+00
+498.0000E-03,+1.5038081E+00
+498.4000E-03,+1.5038081E+00
+498.8000E-03,+1.5030543E+00
+499.2000E-03,+1.5038081E+00
+499.6000E-03,+1.5035568E+00
+500.0000E-03,+1.5038081E+00
+500.4000E-03,+1.5038081E+00
+500.8000E-03,+1.5038081E+00
+501.2000E-03,+1.5038081E+00
+501.6000E-03,+1.5038081E+00
+502.0000E-03,+1.5050644E+00
+502.4000E-03,+1.5038081E+00
+502.8000E-03,+1.5038081E+00
+503.2000E-03,+1.5038081E+00
+503.6000E-03,+1.5038081E+00
+504.0000E-03,+1.5038081E+00
+504.4000E-03,+1.5038081E+00
+504.8000E-03,+1.5038081E+00
+505.2000E-03,+1.5038081E+00
+505.6000E-03,+1.5025518E+00
+506.0000E-03,+1.5038081E+00
+506.4000E-03,+1.5038081E+00
+506.8000E-03,+1.5038081E+00
+507.2000E-03,+1.5038081E+00
+507.6000E-03,+1.5038081E+00
+508.0000E-03,+1.5038081E+00
+508.4000E-03,+1.5038081E+00
+508.8000E-03,+1.5038081E+00
+509.2000E-03,+1.5038081E+00
+509.6000E-03,+1.5038081E+00
+510.0000E-03,+1.5025518E+00
+510.4000E-03,+1.5038081E+00
+510.8000E-03,+1.5038081E+00
+511.2000E-03,+1.5038081E+00
+511.6000E-03,+1.5038081E+00
+512.0000E-03,+1.5038081E+00
+512.4000E-03,+1.5038081E+00
+512.8000E-03,+1.5038081E+00
+513.2000E-03,+1.5038081E+00
+513.6000E-03,+1.5038081E+00
+514.0000E-03,+1.5038081E+00
+514.4000E-03,+1.5038081E+00
+514.8000E-03,+1.5038081E+00
+515.2000E-03,+1.5038081E+00
+515.6000E-03,+1.5038081E+00
+516.0000E-03,+1.5038081E+00
+516.4000E-03,+1.5038081E+00
+516.8000E-03,+1.5038081E+00
+517.2000E-03,+1.5038081E+00
+517.6000E-03,+1.5038081E+00
+518.0000E-03,+1.5038081E+00
+518.4000E-03,+1.5043106E+00
+518.8000E-03,+1.5075769E+00
+519.2000E-03,+1.5080795E+00
+519.6000E-03,+1.5075769E+00
+520.0000E-03,+1.5075769E+00
+520.4000E-03,+1.5075769E+00
+520.8000E-03,+1.5080795E+00
+521.2000E-03,+1.5075769E+00
+521.6000E-03,+1.5075769E+00
+522.0000E-03,+1.5075769E+00
+522.4000E-03,+1.5075769E+00
+522.8000E-03,+1.5070744E+00
+523.2000E-03,+1.5075769E+00
+523.6000E-03,+1.5075769E+00
+524.0000E-03,+1.5075769E+00
+524.4000E-03,+1.5073257E+00
+524.8000E-03,+1.5068232E+00
+525.2000E-03,+1.5068232E+00
+525.6000E-03,+1.5065719E+00
+526.0000E-03,+1.5075769E+00
+526.4000E-03,+1.5075769E+00
+526.8000E-03,+1.5075769E+00
+527.2000E-03,+1.5075769E+00
+527.6000E-03,+1.5075769E+00
+528.0000E-03,+1.5075769E+00
+528.4000E-03,+1.5075769E+00
+528.8000E-03,+1.5075769E+00
+529.2000E-03,+1.5075769E+00
+529.6000E-03,+1.5085820E+00
+530.0000E-03,+1.5075769E+00
+530.4000E-03,+1.5085820E+00
+530.8000E-03,+1.5080795E+00
+531.2000E-03,+1.5088332E+00
+531.6000E-03,+1.5088332E+00
+532.0000E-03,+1.5088332E+00
+532.4000E-03,+1.5088332E+00
+532.8000E-03,+1.5088332E+00
+533.2000E-03,+1.5095870E+00
+533.6000E-03,+1.5078282E+00
+534.0000E-03,+1.5088332E+00
+534.4000E-03,+1.5090845E+00
+534.8000E-03,+1.5095870E+00
+535.2000E-03,+1.5095870E+00
+535.6000E-03,+1.5100895E+00
+536.0000E-03,+1.5100895E+00
+536.4000E-03,+1.5100895E+00
+536.8000E-03,+1.5113458E+00
+537.2000E-03,+1.5113458E+00
+537.6000E-03,+1.5103408E+00
+538.0000E-03,+1.5113458E+00
+538.4000E-03,+1.5103408E+00
+538.8000E-03,+1.5113458E+00
+539.2000E-03,+1.5118483E+00
+539.6000E-03,+1.5126021E+00
+540.0000E-03,+1.5113458E+00
+540.4000E-03,+1.5126021E+00
+540.8000E-03,+1.5126021E+00
+541.2000E-03,+1.5118483E+00
+541.6000E-03,+1.5123508E+00
+542.0000E-03,+1.5126021E+00
+542.4000E-03,+1.5126021E+00
+542.8000E-03,+1.5138584E+00
+543.2000E-03,+1.5126021E+00
+543.6000E-03,+1.5136071E+00
+544.0000E-03,+1.5138584E+00
+544.4000E-03,+1.5138584E+00
+544.8000E-03,+1.5138584E+00
+545.2000E-03,+1.5138584E+00
+545.6000E-03,+1.5138584E+00
+546.0000E-03,+1.5138584E+00
+546.4000E-03,+1.5138584E+00
+546.8000E-03,+1.5151146E+00
+547.2000E-03,+1.5138584E+00
+547.6000E-03,+1.5141096E+00
+548.0000E-03,+1.5138584E+00
+548.4000E-03,+1.5151146E+00
+548.8000E-03,+1.5151146E+00
+549.2000E-03,+1.5158684E+00
+549.6000E-03,+1.5151146E+00
+550.0000E-03,+1.5151146E+00
+550.4000E-03,+1.5163709E+00
+550.8000E-03,+1.5158684E+00
+551.2000E-03,+1.5163709E+00
+551.6000E-03,+1.5161197E+00
+552.0000E-03,+1.5163709E+00
+552.4000E-03,+1.5153659E+00
+552.8000E-03,+1.5163709E+00
+553.2000E-03,+1.5171247E+00
+553.6000E-03,+1.5173759E+00
+554.0000E-03,+1.5176272E+00
+554.4000E-03,+1.5163709E+00
+554.8000E-03,+1.5176272E+00
+555.2000E-03,+1.5163709E+00
+555.6000E-03,+1.5176272E+00
+556.0000E-03,+1.5176272E+00
+556.4000E-03,+1.5176272E+00
+556.8000E-03,+1.5168734E+00
+557.2000E-03,+1.5176272E+00
+557.6000E-03,+1.5176272E+00
+558.0000E-03,+1.5176272E+00
+558.4000E-03,+1.5191347E+00
+558.8000E-03,+1.5188835E+00
+559.2000E-03,+1.5188835E+00
+559.6000E-03,+1.5201398E+00
+560.0000E-03,+1.5201398E+00
+560.4000E-03,+1.5203910E+00
+560.8000E-03,+1.5218986E+00
+561.2000E-03,+1.5226523E+00
+561.6000E-03,+1.5251649E+00
+562.0000E-03,+1.5264212E+00
+562.4000E-03,+1.5254161E+00
+562.8000E-03,+1.5281800E+00
+563.2000E-03,+1.5289337E+00
+563.6000E-03,+1.5324513E+00
+564.0000E-03,+1.5327026E+00
+564.4000E-03,+1.5339589E+00
+564.8000E-03,+1.5357177E+00
+565.2000E-03,+1.5372252E+00
+565.6000E-03,+1.5389840E+00
+566.0000E-03,+1.5402403E+00
+566.4000E-03,+1.5427528E+00
+566.8000E-03,+1.5445116E+00
+567.2000E-03,+1.5460192E+00
+567.6000E-03,+1.5500393E+00
+568.0000E-03,+1.5515468E+00
+568.4000E-03,+1.5540594E+00
+568.8000E-03,+1.5558182E+00
+569.2000E-03,+1.5590845E+00
+569.6000E-03,+1.5603408E+00
+570.0000E-03,+1.5628533E+00
+570.4000E-03,+1.5653659E+00
+570.8000E-03,+1.5683810E+00
+571.2000E-03,+1.5724011E+00
+571.6000E-03,+1.5764212E+00
+572.0000E-03,+1.5779287E+00
+572.4000E-03,+1.5806925E+00
+572.8000E-03,+1.5834563E+00
+573.2000E-03,+1.5867227E+00
+573.6000E-03,+1.5912453E+00
+574.0000E-03,+1.5942604E+00
+574.4000E-03,+1.5980292E+00
+574.8000E-03,+1.6010443E+00
+575.2000E-03,+1.6038081E+00
+575.6000E-03,+1.6080795E+00
+576.0000E-03,+1.6118483E+00
+576.4000E-03,+1.6161197E+00
+576.8000E-03,+1.6198885E+00
+577.2000E-03,+1.6239086E+00
+577.6000E-03,+1.6279287E+00
+578.0000E-03,+1.6319488E+00
+578.4000E-03,+1.6372252E+00
+578.8000E-03,+1.6412453E+00
+579.2000E-03,+1.6447629E+00
+579.6000E-03,+1.6492855E+00
+580.0000E-03,+1.6545619E+00
+580.4000E-03,+1.6585820E+00
+580.8000E-03,+1.6626021E+00
+581.2000E-03,+1.6666222E+00
+581.6000E-03,+1.6706423E+00
+582.0000E-03,+1.6759187E+00
+582.4000E-03,+1.6799388E+00
+582.8000E-03,+1.6839589E+00
+583.2000E-03,+1.6884815E+00
+583.6000E-03,+1.6932553E+00
+584.0000E-03,+1.6972754E+00
+584.4000E-03,+1.7025518E+00
+584.8000E-03,+1.7065719E+00
+585.2000E-03,+1.7118483E+00
+585.6000E-03,+1.7148634E+00
+586.0000E-03,+1.7198885E+00
+586.4000E-03,+1.7229036E+00
+586.8000E-03,+1.7279287E+00
+587.2000E-03,+1.7314463E+00
+587.6000E-03,+1.7359689E+00
+588.0000E-03,+1.7412453E+00
+588.4000E-03,+1.7440091E+00
+588.8000E-03,+1.7492855E+00
+589.2000E-03,+1.7528031E+00
+589.6000E-03,+1.7573257E+00
+590.0000E-03,+1.7613458E+00
+590.4000E-03,+1.7666222E+00
+590.8000E-03,+1.7706423E+00
+591.2000E-03,+1.7751649E+00
+591.6000E-03,+1.7786825E+00
+592.0000E-03,+1.7827026E+00
+592.4000E-03,+1.7877277E+00
+592.8000E-03,+1.7919991E+00
+593.2000E-03,+1.7972754E+00
+593.6000E-03,+1.8002905E+00
+594.0000E-03,+1.8053156E+00
+594.4000E-03,+1.8083307E+00
+594.8000E-03,+1.8138584E+00
+595.2000E-03,+1.8186322E+00
+595.6000E-03,+1.8229036E+00
+596.0000E-03,+1.8266724E+00
+596.4000E-03,+1.8322001E+00
+596.8000E-03,+1.8359689E+00
+597.2000E-03,+1.8412453E+00
+597.6000E-03,+1.8442604E+00
+598.0000E-03,+1.8492855E+00
+598.4000E-03,+1.8545619E+00
+598.8000E-03,+1.8585820E+00
+599.2000E-03,+1.8626021E+00
+599.6000E-03,+1.8666222E+00
+600.0000E-03,+1.8706423E+00
+600.4000E-03,+1.8749136E+00
+600.8000E-03,+1.8799388E+00
+601.2000E-03,+1.8832051E+00
+601.6000E-03,+1.8889840E+00
+602.0000E-03,+1.8932553E+00
+602.4000E-03,+1.8970242E+00
+602.8000E-03,+1.9012955E+00
+603.2000E-03,+1.9045619E+00
+603.6000E-03,+1.9093357E+00
+604.0000E-03,+1.9133558E+00
+604.4000E-03,+1.9186322E+00
+604.8000E-03,+1.9226523E+00
+605.2000E-03,+1.9279287E+00
+605.6000E-03,+1.9319488E+00
+606.0000E-03,+1.9372252E+00
+606.4000E-03,+1.9402403E+00
+606.8000E-03,+1.9440091E+00
+607.2000E-03,+1.9480292E+00
+607.6000E-03,+1.9523006E+00
+608.0000E-03,+1.9573257E+00
+608.4000E-03,+1.9623508E+00
+608.8000E-03,+1.9653659E+00
+609.2000E-03,+1.9706423E+00
+609.6000E-03,+1.9756674E+00
+610.0000E-03,+1.9786825E+00
+610.4000E-03,+1.9827026E+00
+610.8000E-03,+1.9867227E+00
+611.2000E-03,+1.9927528E+00
+611.6000E-03,+1.9972754E+00
+612.0000E-03,+2.0012955E+00
+612.4000E-03,+2.0050644E+00
+612.8000E-03,+2.0085820E+00
+613.2000E-03,+2.0141096E+00
+613.6000E-03,+2.0186322E+00
+614.0000E-03,+2.0226523E+00
+614.4000E-03,+2.0279287E+00
+614.8000E-03,+2.0319488E+00
+615.2000E-03,+2.0372252E+00
+615.6000E-03,+2.0409940E+00
+616.0000E-03,+2.0427528E+00
+616.4000E-03,+2.0467729E+00
+616.8000E-03,+2.0507930E+00
+617.2000E-03,+2.0540594E+00
+617.6000E-03,+2.0575769E+00
+618.0000E-03,+2.0603408E+00
+618.4000E-03,+2.0628533E+00
+618.8000E-03,+2.0658684E+00
+619.2000E-03,+2.0686322E+00
+619.6000E-03,+2.0724011E+00
+620.0000E-03,+2.0754161E+00
+620.4000E-03,+2.0769237E+00
+620.8000E-03,+2.0791850E+00
+621.2000E-03,+2.0804413E+00
+621.6000E-03,+2.0816975E+00
+622.0000E-03,+2.0842101E+00
+622.4000E-03,+2.0852151E+00
+622.8000E-03,+2.0854664E+00
+623.2000E-03,+2.0862202E+00
+623.6000E-03,+2.0877277E+00
+624.0000E-03,+2.0879790E+00
+624.4000E-03,+2.0892352E+00
+624.8000E-03,+2.0892352E+00
+625.2000E-03,+2.0897377E+00
+625.6000E-03,+2.0892352E+00
+626.0000E-03,+2.0892352E+00
+626.4000E-03,+2.0892352E+00
+626.8000E-03,+2.0879790E+00
+627.2000E-03,+2.0879790E+00
+627.6000E-03,+2.0879790E+00
+628.0000E-03,+2.0867227E+00
+628.4000E-03,+2.0854664E+00
+628.8000E-03,+2.0849639E+00
+629.2000E-03,+2.0834563E+00
+629.6000E-03,+2.0816975E+00
+630.0000E-03,+2.0816975E+00
+630.4000E-03,+2.0801900E+00
+630.8000E-03,+2.0786825E+00
+631.2000E-03,+2.0759186E+00
+631.6000E-03,+2.0731548E+00
+632.0000E-03,+2.0703910E+00
+632.4000E-03,+2.0663709E+00
+632.8000E-03,+2.0641096E+00
+633.2000E-03,+2.0620996E+00
+633.6000E-03,+2.0580795E+00
+634.0000E-03,+2.0553156E+00
+634.4000E-03,+2.0525518E+00
+634.8000E-03,+2.0485317E+00
+635.2000E-03,+2.0445116E+00
+635.6000E-03,+2.0404915E+00
+636.0000E-03,+2.0377277E+00
+636.4000E-03,+2.0337076E+00
+636.8000E-03,+2.0291850E+00
+637.2000E-03,+2.0244111E+00
+637.6000E-03,+2.0203910E+00
+638.0000E-03,+2.0151146E+00
+638.4000E-03,+2.0113458E+00
+638.8000E-03,+2.0065719E+00
+639.2000E-03,+2.0017980E+00
+639.6000E-03,+1.9990342E+00
+640.0000E-03,+1.9937578E+00
+640.4000E-03,+1.9897377E+00
+640.8000E-03,+1.9857176E+00
+641.2000E-03,+1.9816975E+00
+641.6000E-03,+1.9774262E+00
+642.0000E-03,+1.9724011E+00
+642.4000E-03,+1.9681297E+00
+642.8000E-03,+1.9631046E+00
+643.2000E-03,+1.9590845E+00
+643.6000E-03,+1.9560694E+00
+644.0000E-03,+1.9510443E+00
+644.4000E-03,+1.9457679E+00
+644.8000E-03,+1.9430041E+00
+645.2000E-03,+1.9377277E+00
+645.6000E-03,+1.9337076E+00
+646.0000E-03,+1.9284312E+00
+646.4000E-03,+1.9244111E+00
+646.8000E-03,+1.9203910E+00
+647.2000E-03,+1.9163709E+00
+647.6000E-03,+1.9110945E+00
+648.0000E-03,+1.9058181E+00
+648.4000E-03,+1.9020493E+00
+648.8000E-03,+1.8990342E+00
+649.2000E-03,+1.8942604E+00
+649.6000E-03,+1.8897377E+00
+650.0000E-03,+1.8857176E+00
+650.4000E-03,+1.8814463E+00
+650.8000E-03,+1.8771749E+00
+651.2000E-03,+1.8724011E+00
+651.6000E-03,+1.8673759E+00
+652.0000E-03,+1.8631046E+00
+652.4000E-03,+1.8603408E+00
+652.8000E-03,+1.8563207E+00
+653.2000E-03,+1.8528031E+00
+653.6000E-03,+1.8472754E+00
+654.0000E-03,+1.8417478E+00
+654.4000E-03,+1.8389840E+00
+654.8000E-03,+1.8344614E+00
+655.2000E-03,+1.8296875E+00
+655.6000E-03,+1.8256674E+00
+656.0000E-03,+1.8216473E+00
+656.4000E-03,+1.8163709E+00
+656.8000E-03,+1.8110945E+00
+657.2000E-03,+1.8070744E+00
+657.6000E-03,+1.8030543E+00
+658.0000E-03,+1.7990342E+00
+658.4000E-03,+1.7950141E+00
+658.8000E-03,+1.7897377E+00
+659.2000E-03,+1.7849639E+00
+659.6000E-03,+1.7814463E+00
+660.0000E-03,+1.7764212E+00
+660.4000E-03,+1.7724011E+00
+660.8000E-03,+1.7683810E+00
+661.2000E-03,+1.7643609E+00
+661.6000E-03,+1.7603408E+00
+662.0000E-03,+1.7563207E+00
+662.4000E-03,+1.7510443E+00
+662.8000E-03,+1.7470242E+00
+663.2000E-03,+1.7425016E+00
+663.6000E-03,+1.7389840E+00
